19.504   5275.86034328
19.508   5355.83890391
19.512   5325.43205646
19.516   5286.89700991
19.52   5136.95588013
19.524   5111.92191947
19.528   5233.15975615
19.532   5290.32457216
19.536   5247.48974187
19.54   5217.96842649
19.544   5231.43761602
19.548   5219.98367956
19.552   5282.99975492
19.556   5202.63486342
19.56   5207.94435368
19.564   5226.75223738
19.568   5299.62795155
19.572   5228.34354656
19.576   5230.1337968
19.58   5185.11023864
19.584   5287.13466007
19.588   5217.35611166
19.592   5280.24167534
19.596   5239.28439268
19.6   5177.62189401
19.604   5325.18226541
19.608   5256.75763493
19.612   5291.49751105
19.616   5254.35615242
19.62   5209.60758678
19.624   5117.8159223
19.628   5172.40871729
19.632   5242.74419883
19.636   5343.06821372
19.64   5290.24307897
19.644   5357.51277575
19.648   5358.11845675
19.652   5462.16625276
19.656   5233.12306661
19.66   5176.92798084
19.664   5187.09030183
19.668   5295.97378199
19.672   5214.85060651
19.676   5260.40740504
19.68   5265.48626877
19.684   5307.3205913
19.688   5286.70155107
19.692   5273.76180137
19.696   5372.5380489
19.7   5500.99625589
19.704   5337.88111459
19.708   5272.76700536
19.712   5277.45377783
19.716   5225.71842927
19.72   5331.25076535
19.724   5274.40397329
19.728   5279.78516706
19.732   5397.42318107
19.736   5450.21794134
19.74   5379.64505438
19.744   5367.15338239
19.748   5378.21184214
19.752   5372.03975729
19.756   5411.92241296
19.76   5403.13151452
19.764   5333.75337726
19.768   5208.20188069
19.772   5347.83546217
19.776   5378.70139867
19.78   5440.18300632
19.784   5363.48214555
19.788   5466.98721764
19.792   5353.12497077
19.796   5448.21082675
19.8   5475.8817472
19.804   5511.21539072
19.808   5479.57618115
19.812   5557.02134715
19.816   5557.91468106
19.82   5527.37498485
19.824   5547.65840162
19.828   5632.42590728
19.832   5642.88886013
19.836   5539.46689072
19.84   5607.17578236
19.844   5417.26789629
19.848   5607.73387666
19.852   5592.15664535
19.856   5555.42990855
19.86   5533.87260341
19.864   5542.88542191
19.868   5612.40657412
19.872   5635.04553597
19.876   5628.98330835
19.88   5686.58707481
19.884   5706.75505635
19.888   5644.94807868
19.892   5754.97081863
19.896   5850.42288856
19.9   5750.96226442
19.904   5729.49191093
19.908   5772.13536041
19.912   5695.23682346
19.916   5897.69886841
19.92   5854.03287554
19.924   5803.09376409
19.928   5795.6153242
19.932   5848.66191824
19.936   5821.37270867
19.94   5795.63673906
19.944   5819.37194799
19.948   5821.3573751
19.952   5925.69503293
19.956   5983.91828668
19.96   5957.59296503
19.964   5985.6510041
19.968   5991.33388128
19.972   5917.64642953
19.976   6052.03487613
19.98   5936.18177867
19.984   6067.68452443
19.988   5974.64316966
19.992   6054.42925291
19.996   5967.80077074
20.0   6094.49633712
20.004   6129.2914487
20.008   6118.9864631
20.012   6250.18615004
20.016   6206.82846634
20.02   6014.61359965
20.024   6056.1821836
20.028   6114.19434686
20.032   6190.54800384
20.036   6306.80979387
20.04   6185.64877758
20.044   6249.20196433
20.048   6217.11118069
20.052   6174.34971571
20.056   6325.56722873
20.06   6382.89989085
20.064   6386.7195114
20.068   6455.4571292
20.072   6415.78667158
20.076   6518.03464239
20.08   6564.1774953
20.084   6518.32687238
20.088   6591.25655442
20.092   6500.61844787
20.096   6480.48823711
20.1   6487.1859596
20.104   6619.55244025
20.108   6709.42273205
20.112   6771.21917875
20.116   6792.01162579
20.12   6771.1098878
20.124   6831.18919755
20.128   6832.55483046
20.132   6728.77426742
20.136   6868.83080427
20.14   7013.77379609
20.144   6999.04243904
20.148   6918.52811688
20.152   7030.84688257
20.156   7080.84563664
20.16   6997.01725541
20.164   7045.13787121
20.168   7077.27516185
20.172   7154.35541982
20.176   7107.72578351
20.18   7187.79292915
20.184   7286.04773778
20.188   7269.67530995
20.192   7276.9930151
20.196   7368.84652453
20.2   7488.06168563
20.204   7457.67242032
20.208   7641.55286836
20.212   7490.61438978
20.216   7661.42869698
20.22   7525.12618561
20.224   7713.98917746
20.228   7700.78917044
20.232   7914.93388985
20.236   7827.59461329
20.24   7846.49383568
20.244   7926.24609823
20.248   8048.92271435
20.252   8036.5079033
20.256   8022.79253705
20.26   8074.86912137
20.264   8224.94153959
20.268   8330.40769778
20.272   8240.27846721
20.276   8400.73746447
20.28   8246.55062701
20.284   8405.75977393
20.288   8419.05801393
20.292   8684.05795837
20.296   8690.13583755
20.3   8748.38363217
20.304   8827.13840919
20.308   9054.46147476
20.312   8994.14421174
20.316   8971.4168639
20.32   9079.02825719
20.324   9186.23499717
20.328   9325.53554776
20.332   9243.72736973
20.336   9283.48698988
20.34   9437.62940466
20.344   9707.78874451
20.348   9590.33405238
20.352   9659.34663135
20.356   9739.66759847
20.36   9872.08123379
20.364   9998.35827283
20.368   10096.5552747
20.372   10199.5815258
20.376   10243.3482592
20.38   10336.821158
20.384   10498.403179
20.388   10473.552757
20.392   10456.3286715
20.396   10612.2654262
20.4   10681.7246621
20.404   11013.6179263
20.408   10924.0695872
20.412   11061.2015282
20.416   11355.9080217
20.42   11326.2734951
20.424   11346.7177999
20.428   11470.8939072
20.432   11608.5167374
20.436   11692.7761789
20.44   11780.7756845
20.444   12000.7421479
20.448   12191.5703203
20.452   12173.5952036
20.456   12260.087414
20.46   12493.7300683
20.464   12655.1005103
20.468   12636.8149776
20.472   12876.4475415
20.476   12826.8474392
20.48   12931.6185781
20.484   13094.8287461
20.488   13305.2141222
20.492   13480.3526982
20.496   13590.6526126
20.5   13660.9452586
20.504   14018.3585715
20.508   14286.9260401
20.512   14428.0116357
20.516   14402.1451812
20.52   14203.7288149
20.524   14428.0132151
20.528   14310.9948709
20.532   14433.8397686
20.536   14581.1868542
20.54   15029.5343425
20.544   15145.3837721
20.548   15113.6983835
20.552   15243.2575323
20.556   15326.7824032
20.56   15466.8622439
20.564   15422.1545479
20.568   15474.2877115
20.572   15629.9195129
20.576   15926.9654016
20.58   15839.3583087
20.584   16172.3387379
20.588   16214.0864535
20.592   16158.6781167
20.596   16045.9711133
20.6   16347.3005956
20.604   16452.6664059
20.608   16646.5637095
20.612   16593.4409784
20.616   16465.6047694
20.62   16652.0771353
20.624   16676.0595934
20.628   16743.7380529
20.632   16805.24513
20.636   16807.4716156
20.64   16988.8786528
20.644   17072.102251
20.648   16900.7564227
20.652   17038.2029671
20.656   17137.1420951
20.66   17543.0827222
20.664   17296.2746862
20.668   17260.6802474
20.672   16978.7450759
20.676   17133.8304943
20.68   17227.0063317
20.684   17179.9979571
20.688   17095.1270843
20.692   16996.3304557
20.696   16907.5697238
20.7   16874.4189273
20.704   16756.4105371
20.708   16589.3492345
20.712   16480.7153762
20.716   16116.9241802
20.72   16209.5516315
20.724   15626.2924876
20.728   15837.1623561
20.732   15653.7521742
20.736   15270.9168676
20.74   15235.8691357
20.744   15078.0176196
20.748   14952.3424945
20.752   14812.7659369
20.756   14763.2718458
20.76   14725.4003483
20.764   14567.6533267
20.768   14373.2520845
20.772   13992.590981
20.776   13833.4330661
20.78   13889.9382714
20.784   13498.9909704
20.788   13608.8818138
20.792   13344.8491
20.796   13278.5151525
20.8   13058.730027
20.804   12918.9956116
20.808   12884.3645525
20.812   12626.6769674
20.816   12390.3649611
20.82   12268.2410199
20.824   12377.700803
20.828   12153.1182199
20.832   11942.6000737
20.836   11799.0958929
20.84   11867.8321334
20.844   11579.2417577
20.848   11442.0354007
20.852   11432.9136675
20.856   11253.5624587
20.86   11175.7933865
20.864   11004.1336413
20.868   10804.1896692
20.872   10669.0347883
20.876   10565.6847546
20.88   10460.001144
20.884   10389.7177114
20.888   10284.2090992
20.892   10287.8681747
20.896   9983.24117613
20.9   10006.3100605
20.904   9773.81650756
20.908   9687.34892374
20.912   9682.53736039
20.916   9539.28472465
20.92   9476.60685862
20.924   9304.88072892
20.928   9099.58588352
20.932   9078.65655051
20.936   8867.76123167
20.94   8741.69518939
20.944   8792.58705789
20.948   8727.41334314
20.952   8490.78700445
20.956   8436.89627141
20.96   8462.24799035
20.964   8202.75212812
20.968   8258.36422665
20.972   8103.99714847
20.976   8166.16952811
20.98   7913.27536512
20.984   7844.34017376
20.988   7768.07538405
20.992   7742.73724666
20.996   7710.62552016
21.0   7622.9219581
21.004   7473.81569323
21.008   7407.8441154
21.012   7405.31934299
21.016   7319.06755938
21.02   7266.18761065
21.024   7253.72301299
21.028   7131.98229436
21.032   7096.3520808
21.036   6924.18288903
21.04   6989.64403698
21.044   6914.58368149
21.048   6860.07491947
21.052   6765.23727807
21.056   6593.61026474
21.06   6550.43375308
21.064   6613.94518322
21.068   6605.8764724
21.072   6530.17039027
21.076   6469.71134692
21.08   6385.16199592
21.084   6348.2785595
21.088   6313.95032738
21.092   6208.67177963
21.096   6213.2481937
21.1   5966.46238089
21.104   6094.5599921
21.108   6159.10018249
21.112   6050.81404219
21.116   5971.70443687
21.12   6006.9783003
21.124   6061.25486184
21.128   5903.79967557
21.132   5859.67898977
21.136   5762.8978904
21.14   5616.71544005
21.144   5646.88099149
21.148   5702.15002443
21.152   5662.3904223
21.156   5718.23092458
21.16   5610.60970626
21.164   5568.32914564
21.168   5432.79487783
21.172   5540.43095043
21.176   5490.80552705
21.18   5477.12504714
21.184   5452.65863468
21.188   5371.63891345
21.192   5308.8587419
21.196   5201.215797
21.2   5310.16385884
21.204   5248.23215032
21.208   5408.77071342
21.212   5205.85476299
21.216   5216.43794028
21.22   4987.44011459
21.224   5014.38156598
21.228   5163.67070962
21.232   5048.35021619
21.236   5040.99714243
21.24   4986.84670361
21.244   5004.84808217
21.248   4924.90959733
21.252   4840.53861282
21.256   4943.08366748
21.26   4909.28043502
21.264   4815.63691853
21.268   4938.67160834
21.272   4763.38995493
21.276   4850.53594667
21.28   4613.82514865
21.284   4748.82436873
21.288   4818.11308036
21.292   4703.38318027
21.296   4694.60477138
21.3   4729.27760819
21.304   4701.10115196
21.308   4650.17779838
21.312   4613.67836992
21.316   4661.35135398
21.32   4556.34896233
21.324   4622.04213929
21.328   4676.88903392
21.332   4441.92887718
21.336   4566.68395213
21.34   4464.84362696
21.344   4490.03430113
21.348   4486.40054313
21.352   4642.41522996
21.356   4468.59670288
21.36   4455.13232563
21.364   4381.67092162
21.368   4388.96251875
21.372   4380.05436764
21.376   4345.28078028
21.38   4361.39743597
21.384   4341.97982441
21.388   4388.31700295
21.392   4293.66782374
21.396   4331.82520384
21.4   4191.53363407
21.404   4239.31475519
21.408   4260.42585078
21.412   4235.71561418
21.416   4221.11986278
21.42   4221.94973475
21.424   4192.04278836
21.428   4257.64713482
21.432   4181.587583
21.436   4075.93392983
21.44   4159.99656434
21.444   4151.61112599
21.448   4094.23628809
21.452   4138.69099316
21.456   4143.23816162
21.46   4101.25491452
21.464   4208.72384798
21.468   4018.89321194
21.472   4135.51806186
21.476   4088.22491495
21.48   4062.58949592
21.484   4106.38314748
21.488   4062.09127428
21.492   4048.31158276
21.496   4072.55722256
21.5   4018.34123728
21.504   4000.08287084
21.508   4012.51766296
21.512   4027.87431642
21.516   3968.66351065
21.52   3998.23683633
21.524   3970.37811255
21.528   3909.99156852
21.532   3990.31176173
21.536   3931.9685121
21.54   3810.19847934
21.544   3841.21858665
21.548   3839.90933914
21.552   3837.97989161
21.556   3792.9665235
21.56   3858.14023797
21.564   3877.45356486
21.568   3863.09873392
21.572   3901.94537629
21.576   3757.56541613
21.58   3858.56531989
21.584   3980.81167906
21.588   3828.91975936
21.592   3829.2157136
21.596   3784.9021939
21.6   3722.87391581
21.604   3723.27435275
21.608   3769.14207751
21.612   3687.49312739
21.616   3734.41527641
21.62   3676.96986516
21.624   3727.00447388
21.628   3804.85166442
21.632   3725.50590526
21.636   3679.097596
21.64   3732.41421367
21.644   3785.83816109
21.648   3701.10951423
21.652   3771.78971622
21.656   3674.42145009
21.66   3754.15344188
21.664   3691.28742875
21.668   3678.93703687
21.672   3729.43649532
21.676   3652.00063949
21.68   3635.91616946
21.684   3663.14099467
21.688   3626.4005408
21.692   3560.36491941
21.696   3637.10560759
21.7   3660.26571036
21.704   3740.70066135
21.708   3598.58943315
21.712   3592.67531238
21.716   3479.12401104
21.72   3520.15282334
21.724   3537.2234103
21.728   3510.88509652
21.732   3551.19948755
21.736   3531.26219941
21.74   3512.86256117
21.744   3541.23439557
21.748   3649.03887385
21.752   3634.1232567
21.756   3528.9586433
21.76   3541.97622969
21.764   3418.42243585
21.768   3450.45750736
21.772   3557.76635981
21.776   3490.62249794
21.78   3543.65802095
21.784   3464.44827796
21.788   3564.17578747
21.792   3514.54462431
21.796   3567.21726557
21.8   3522.56737234
21.804   3561.27683755
21.808   3585.43736306
21.812   3520.7484818
21.816   3470.39040035
21.82   3517.22355905
21.824   3480.17247027
21.828   3372.04314084
21.832   3439.22013223
21.836   3420.52974222
21.84   3446.52749302
21.844   3444.08759266
21.848   3450.53164549
21.852   3412.07937708
21.856   3470.52572973
21.86   3414.7733114
21.864   3355.0242868
21.868   3421.30646189
21.872   3406.97844889
21.876   3454.39086598
21.88   3432.25170849
21.884   3375.36090272
21.888   3390.71132416
21.892   3360.45436708
21.896   3398.15716938
21.9   3412.52734146
21.904   3312.32019955
21.908   3412.48880113
21.912   3387.94116967
21.916   3465.08649457
21.92   3366.96298727
21.924   3347.22502676
21.928   3299.06386354
21.932   3286.03695763
21.936   3367.89828881
21.94   3354.98392207
21.944   3369.2208311
21.948   3436.62037872
21.952   3347.66851887
21.956   3302.41943454
21.96   3303.0486879
21.964   3359.20144829
21.968   3363.48095277
21.972   3342.75657634
21.976   3250.97039749
21.98   3283.24193166
21.984   3290.59153254
21.988   3293.25842384
21.992   3294.72301486
21.996   3252.51030684
22.0   3245.14761956
