9.504   6174.52270121
9.508   6150.54112119
9.512   6216.91510905
9.516   6182.99297844
9.52   6193.5704684
9.524   6161.70612213
9.528   6078.77413088
9.532   6111.28696284
9.536   6195.62152986
9.54   6175.39903824
9.544   6192.42412621
9.548   6135.64094241
9.552   6177.59079951
9.556   6128.87874894
9.56   6155.75817095
9.564   6216.09434061
9.568   6218.95972281
9.572   6253.04389964
9.576   6150.11093912
9.58   6215.00141272
9.584   6208.33289465
9.588   6173.68499083
9.592   6183.42296146
9.596   6215.59940838
9.6   6213.84971196
9.604   6144.15955201
9.608   6296.40938448
9.612   6373.65666391
9.616   6098.78612052
9.62   6265.77554209
9.624   6308.71766994
9.628   6264.55074986
9.632   6308.12140826
9.636   6291.52830293
9.64   6263.57512907
9.644   6267.48590335
9.648   6308.54779866
9.652   6222.92883432
9.656   6219.75474192
9.66   6345.95324019
9.664   6266.04090572
9.668   6283.67235909
9.672   6400.19283723
9.676   6376.57959299
9.68   6173.52216676
9.684   6296.49676602
9.688   6463.55366104
9.692   6263.55258009
9.696   6226.81244683
9.7   6337.09243794
9.704   6317.82951641
9.708   6331.73862413
9.712   6418.7526519
9.716   6419.31641704
9.72   6279.05930921
9.724   6456.13279187
9.728   6480.14531759
9.732   6435.89124932
9.736   6333.85785016
9.74   6449.34726103
9.744   6384.70497775
9.748   6359.0684151
9.752   6400.26774213
9.756   6389.06104693
9.76   6533.79729548
9.764   6504.31652845
9.768   6446.5075445
9.772   6527.95156626
9.776   6500.39346367
9.78   6476.323783
9.784   6484.97220146
9.788   6494.88744562
9.792   6689.82667953
9.796   6634.47035444
9.8   6610.57194351
9.804   6619.94816442
9.808   6567.6749124
9.812   6602.55402459
9.816   6606.93804052
9.82   6679.97155448
9.824   6690.74676839
9.828   6706.77858922
9.832   6671.25691118
9.836   6664.10814624
9.84   6769.83072969
9.844   6740.40078682
9.848   6666.96436695
9.852   6695.79203348
9.856   6783.18163811
9.86   6785.98209872
9.864   6883.47305972
9.868   6770.05017786
9.872   6789.11256865
9.876   6819.35153847
9.88   6875.40296375
9.884   6899.11275706
9.888   6935.7897064
9.892   7009.97753425
9.896   7000.79357041
9.9   7055.59250466
9.904   6935.18253452
9.908   6882.30403388
9.912   6916.57590266
9.916   6979.75412498
9.92   7041.64664372
9.924   7130.27764609
9.928   7104.85669786
9.932   7139.1123967
9.936   7075.97734114
9.94   7262.20231233
9.944   7335.20262398
9.948   7409.30665873
9.952   7327.1672752
9.956   7206.53283238
9.96   7364.26593419
9.964   7411.88795562
9.968   7418.45342358
9.972   7374.06634984
9.976   7447.3245261
9.98   7382.37748678
9.984   7581.74825766
9.988   7382.97819582
9.992   7489.7930302
9.996   7448.68291464
10.0   7580.69480796
10.004   7619.18637228
10.008   7606.57510688
10.012   7542.43004014
10.016   7575.79853602
10.02   7708.03942357
10.024   7819.15246916
10.028   7840.57727943
10.032   7870.89334434
10.036   8023.46696835
10.04   7823.73318656
10.044   8021.09432164
10.048   7957.14405708
10.052   8111.15939078
10.056   8006.506324
10.06   8142.93958718
10.064   8119.71506429
10.068   8290.30495841
10.072   8288.53836954
10.076   8317.15840216
10.08   8398.81052327
10.084   8374.82058255
10.088   8463.91499624
10.092   8536.68277131
10.096   8578.05511152
10.1   8507.99982326
10.104   8476.96821414
10.108   8473.56841225
10.112   8632.93341512
10.116   8592.57871402
10.12   8916.52867865
10.124   8834.85542119
10.128   8931.27881481
10.132   8800.04970015
10.136   8919.78541953
10.14   8888.65333433
10.144   8999.78307636
10.148   9126.27699018
10.152   9103.97264963
10.156   9112.35026837
10.16   9139.66825894
10.164   9291.90541621
10.168   9275.73967492
10.172   9569.60424073
10.176   9510.12976525
10.18   9593.99294254
10.184   9583.77067739
10.188   9551.54329405
10.192   9506.01537247
10.196   9630.88566151
10.2   9774.81416452
10.204   9658.70916703
10.208   9704.726092
10.212   9788.16757669
10.216   9886.04526347
10.22   9949.84424102
10.224   10018.1194
10.228   10085.0405819
10.232   10126.2311872
10.236   10072.5107053
10.24   10208.0722579
10.244   10124.0227813
10.248   10138.4417349
10.252   10163.1880829
10.256   10246.9577427
10.26   10247.4136017
10.264   10284.204371
10.268   10294.1605762
10.272   10401.3602869
10.276   10378.1405255
10.28   10187.0897457
10.284   10351.1438867
10.288   10160.8767963
10.292   10393.0728486
10.296   10247.1262976
10.3   10302.7289053
10.304   10331.796354
10.308   10367.6886033
10.312   10338.4756517
10.316   10388.9177908
10.32   10242.7040675
10.324   10320.33484
10.328   10332.6323373
10.332   10332.8508168
10.336   10307.0589551
10.34   10065.4502239
10.344   10102.0119576
10.348   10102.0855294
10.352   10018.4980465
10.356   10106.460737
10.36   9980.13989513
10.364   9943.19244969
10.368   9893.36714671
10.372   9827.43238729
10.376   9879.17472037
10.38   9595.23094291
10.384   9562.59355666
10.388   9535.60046495
10.392   9571.65448021
10.396   9569.49036614
10.4   9476.04598147
10.404   9461.76221217
10.408   9421.03272036
10.412   9278.2688105
10.416   9273.58708529
10.42   9330.73830623
10.424   9206.7451183
10.428   9093.62709438
10.432   9133.1858477
10.436   9050.92337701
10.44   8875.16821221
10.444   8792.09700537
10.448   8830.53893194
10.452   8939.51866636
10.456   8837.8843887
10.46   8680.86422809
10.464   8550.22853838
10.468   8544.92041691
10.472   8593.48559662
10.476   8521.70366618
10.48   8522.48701605
10.484   8512.15503379
10.488   8451.95090571
10.492   8352.31673928
10.496   8245.8767233
10.5   8032.25751703
10.504   8069.11244442
10.508   7999.79564101
10.512   7963.21068474
10.516   7923.49676939
10.52   7946.58359117
10.524   7873.32917001
10.528   7768.51304374
10.532   7804.73042366
10.536   7621.8058367
10.54   7633.85449807
10.544   7680.22713915
10.548   7728.05610094
10.552   7542.94955597
10.556   7578.94945561
10.56   7472.61914467
10.564   7426.30473453
10.568   7297.21115281
10.572   7320.62714328
10.576   7380.13077785
10.58   7288.98933259
10.584   7215.75719459
10.588   7296.85224855
10.592   7279.85845246
10.596   7060.17856971
10.6   6991.72056331
10.604   7141.39000041
10.608   7091.1515289
10.612   7154.3599381
10.616   6916.69182743
10.62   6861.85589668
10.624   6919.67800936
10.628   6938.08825734
10.632   6778.99223627
10.636   6755.62250642
10.64   6812.98598747
10.644   6818.9269871
10.648   6756.15699985
10.652   6686.26633268
10.656   6685.87851944
10.66   6588.47404701
10.664   6490.66087439
10.668   6686.17886296
10.672   6642.57321201
10.676   6569.52326918
10.68   6599.16006103
10.684   6494.89111281
10.688   6500.28072487
10.692   6588.86193046
10.696   6470.92713538
10.7   6396.69780263
10.704   6325.31938505
10.708   6341.43966491
10.712   6340.46014856
10.716   6310.53599749
10.72   6268.93971779
10.724   6283.20969605
10.728   6297.24330216
10.732   6173.5435565
10.736   6320.56191883
10.74   6197.94310979
10.744   6162.85197673
10.748   6247.10336058
10.752   6241.89617724
10.756   6220.8813419
10.76   6155.2026853
10.764   6204.29709108
10.768   6096.2157787
10.772   6107.39092587
10.776   6148.98600706
10.78   6160.44679651
10.784   6050.90321852
10.788   6185.60408873
10.792   6129.1763152
10.796   6035.09385344
10.8   5861.05663305
10.804   6113.12015317
10.808   5931.3033238
10.812   6062.00802412
10.816   5963.61073159
10.82   5998.84150698
10.824   5920.69834141
10.828   5968.12646049
10.832   6106.71413201
10.836   6001.69620253
10.84   5979.96056447
10.844   6017.00130155
10.848   5910.43102869
10.852   5793.45803776
10.856   5934.0016685
10.86   5827.1770059
10.864   5983.40230305
10.868   5899.9122576
10.872   5797.89231046
10.876   5783.17129077
10.88   5716.63834767
10.884   5709.64716875
10.888   5801.15027637
10.892   5786.16706627
10.896   5729.42726502
10.9   5766.18798749
10.904   5829.80929453
10.908   5770.02639271
10.912   5741.57675254
10.916   5817.07174944
10.92   5828.19612046
10.924   5751.079585
10.928   5647.52006436
10.932   5661.63520332
10.936   5732.12412499
10.94   5684.88251147
10.944   5603.39137868
10.948   5595.1916942
10.952   5635.34687156
10.956   5752.40240916
10.96   5663.12355513
10.964   5585.76319486
10.968   5595.05175644
10.972   5596.8573421
10.976   5611.84191518
10.98   5530.82007186
10.984   5801.16593234
10.988   5670.69538802
10.992   5615.6588766
10.996   5626.73590612
11.0   5536.68578857
