58.31   0.176117775354
58.32   0.170119956379
58.33   0.14667393675
58.34   0.160850599782
58.35   0.181025081788
58.36   0.179389312977
58.37   0.154852780807
58.38   0.172300981461
58.39   0.175572519084
58.4   0.175572519084
58.41   0.159214830971
58.42   0.154852780807
58.43   0.167393675027
58.44   0.173936750273
58.45   0.163031624864
58.46   0.151035986914
58.47   0.172846237732
58.48   0.193565976009
58.49   0.175027262814
58.5   0.189203925845
58.51   0.193020719738
58.52   0.172846237732
58.53   0.174482006543
58.54   0.178298800436
58.55   0.175027262814
58.56   0.169029443839
58.57   0.192475463468
58.58   0.172300981461
58.59   0.169029443839
58.6   0.172300981461
58.61   0.151581243184
58.62   0.156488549618
58.63   0.165757906216
58.64   0.162486368593
58.65   0.167393675027
58.66   0.159214830971
58.67   0.165212649945
58.68   0.172300981461
58.69   0.175027262814
58.7   0.167393675027
58.71   0.164667393675
58.72   0.167393675027
58.73   0.182115594329
58.74   0.17121046892
58.75   0.160305343511
58.76   0.160305343511
58.77   0.166303162486
58.78   0.17066521265
58.79   0.165757906216
58.8   0.177753544166
58.81   0.180479825518
58.82   0.172846237732
58.83   0.177208287895
58.84   0.177753544166
58.85   0.157033805889
58.86   0.171755725191
58.87   0.188658669575
58.88   0.169574700109
58.89   0.153762268266
58.9   0.175572519084
58.91   0.170119956379
58.92   0.174482006543
58.93   0.163031624864
58.94   0.175027262814
58.95   0.171755725191
58.96   0.160850599782
58.97   0.175027262814
58.98   0.181570338059
58.99   0.177208287895
59.0   0.183751363141
59.01   0.177753544166
59.02   0.200109051254
59.03   0.183751363141
59.04   0.188658669575
59.05   0.189749182116
59.06   0.199563794984
59.07   0.214830970556
59.08   0.249182115594
59.09   0.263358778626
59.1   0.310796074155
59.11   0.433478735005
59.12   0.520174482007
59.13   0.640130861505
59.14   0.805888767721
59.15   0.935659760087
59.16   1.0
59.17   0.998364231189
59.18   0.943293347874
59.19   0.879498364231
59.2   0.681025081788
59.21   0.568702290076
59.22   0.482551799346
59.23   0.3653217012
59.24   0.314067611778
59.25   0.25627044711
59.26   0.229007633588
59.27   0.203380588877
59.28   0.188113413304
59.29   0.191384950927
59.3   0.184296619411
59.31   0.202835332606
59.32   0.199563794984
59.33   0.189203925845
59.34   0.17121046892
59.35   0.172300981461
59.36   0.188113413304
59.37   0.177753544166
59.38   0.189203925845
59.39   0.188658669575
59.4   0.185932388222
59.41   0.184296619411
59.42   0.161941112323
59.43   0.205016357688
59.44   0.173936750273
59.45   0.178844056707
59.46   0.186477644493
59.47   0.176663031625
59.48   0.194111232279
59.49   0.163576881134
59.5   0.173391494002
59.51   0.175572519084
59.52   0.173936750273
59.53   0.162486368593
59.54   0.193020719738
59.55   0.176663031625
59.56   0.165757906216
59.57   0.169029443839
59.58   0.164122137405
59.59   0.181025081788
59.6   0.177753544166
59.61   0.159214830971
59.62   0.176117775354
59.63   0.149945474373
59.64   0.175572519084
59.65   0.174482006543
59.66   0.1586695747
59.67   0.181025081788
59.68   0.167393675027
59.69   0.154852780807
59.7   0.170119956379
59.71   0.166303162486
59.72   0.176663031625
59.73   0.183751363141
59.74   0.1586695747
59.75   0.179389312977
59.76   0.175027262814
59.77   0.154307524537
59.78   0.167393675027
59.79   0.184296619411
59.8   0.167938931298
59.81   0.173391494002
59.82   0.169574700109
59.83   0.173391494002
59.84   0.173391494002
59.85   0.170119956379
59.86   0.161941112323
59.87   0.176663031625
59.88   0.152671755725
59.89   0.163576881134
59.9   0.170119956379
59.91   0.171755725191
59.92   0.170119956379
59.93   0.179389312977
59.94   0.170119956379
59.95   0.184296619411
59.96   0.172300981461
59.97   0.175572519084
59.98   0.178844056707
59.99   0.185932388222
60.0   0.170119956379
60.01   0.176663031625
60.02   0.160850599782
60.03   0.181570338059
60.04   0.163576881134
60.05   0.169574700109
60.06   0.173391494002
60.07   0.161941112323
60.08   0.161941112323
60.09   0.18320610687
60.1   0.152671755725
60.11   0.185932388222
60.12   0.178298800436
60.13   0.165212649945
60.14   0.14667393675
60.15   0.1586695747
60.16   0.17066521265
60.17   0.178844056707
60.18   0.159214830971
60.19   0.163031624864
