27.52   0.0795014060956
27.54   0.0864938815839
27.56   0.0814775404728
27.58   0.0840617161967
27.6   0.0786653492437
27.62   0.0844417420385
27.64   0.0842897317018
27.66   0.0830736490081
27.68   0.0842137265334
27.7   0.0814015353044
27.72   0.0850497833853
27.74   0.0835296800182
27.76   0.0870259177624
27.78   0.0871779280991
27.8   0.089306072813
27.82   0.0950064604393
27.84   0.0912062020217
27.86   0.0896860986547
27.88   0.0920422588736
27.9   0.0929543208938
27.92   0.0991867446986
27.94   0.0950824656077
27.96   0.0931063312305
27.98   0.0940943984191
28.0   0.103215018621
28.02   0.100098806719
28.04   0.106255225355
28.06   0.102987003116
28.08   0.110435509615
28.1   0.11203161815
28.12   0.110511514783
28.14   0.109903473436
28.16   0.11894808847
28.18   0.124648476096
28.2   0.128524739682
28.22   0.130576879228
28.24   0.143041726837
28.26   0.149730181652
28.28   0.165083225659
28.3   0.164247168807
28.32   0.18302044539
28.34   0.201337690963
28.36   0.216310709128
28.38   0.245420688607
28.4   0.275062704264
28.42   0.305388766436
28.44   0.341871247245
28.46   0.406551645512
28.48   0.458843201338
28.5   0.514859010413
28.52   0.598084669758
28.54   0.678574143042
28.56   0.744850649844
28.58   0.814851409896
28.6   0.882572014897
28.62   0.936155658585
28.64   0.978642547693
28.66   0.989587291936
28.68   1.0
28.7   0.966633731094
28.72   0.905905601581
28.74   0.847913658129
28.76   0.78148514099
28.78   0.703731853766
28.8   0.626814623394
28.82   0.554077677282
28.84   0.486965113628
28.86   0.421980694687
28.88   0.383826100175
28.9   0.336626890629
28.92   0.299840389146
28.94   0.259481644752
28.96   0.23280383066
28.98   0.209622254313
29.0   0.191761039751
29.02   0.176484000912
29.04   0.164779204986
29.06   0.154670517595
29.08   0.149502166147
29.1   0.129056775861
29.12   0.125788553622
29.14   0.128524739682
29.16   0.116515923083
29.18   0.116211902409
29.2   0.111423576803
29.22   0.107851333891
29.24   0.108155354564
29.26   0.108459375238
29.28   0.10557117884
29.3   0.102302956601
29.32   0.0984266930151
29.34   0.0967545793114
29.36   0.100022801551
29.38   0.092346279547
29.4   0.0958425172912
29.42   0.0930303260622
29.44   0.0920422588736
29.46   0.0894580831497
29.48   0.0913582123584
29.5   0.0918142433685
29.52   0.0892300676446
29.54   0.0864178764156
29.56   0.0855818195637
29.58   0.0863418712472
29.6   0.0877859694459
29.62   0.0859618454055
29.64   0.0837576955233
29.66   0.085429809227
29.68   0.0864938815839
29.7   0.0834536748499
29.72   0.0828456335031
29.74   0.0842897317018
29.76   0.0839857110283
29.78   0.0810215094626
