8.404   0.807013573068
8.408   0.801472292958
8.412   0.820681829915
8.416   0.803442837749
8.42   0.79335711931
8.424   0.779965655187
8.428   0.80685725846
8.432   0.789561043801
8.436   0.797625149596
8.44   0.826719307369
8.444   0.812732306109
8.448   0.792266475067
8.452   0.789228036201
8.456   0.799289307914
8.46   0.811178507829
8.464   0.800675451985
8.468   0.786736911144
8.472   0.81198364014
8.476   0.813785904698
8.48   0.827022104666
8.484   0.808791066924
8.488   0.794996411369
8.492   0.815099452121
8.496   0.82889623519
8.5   0.827819938952
8.504   0.80057031285
8.508   0.799736633971
8.512   0.810973363919
8.516   0.815780577231
8.52   0.821645111331
8.524   0.821357154766
8.528   0.79996778542
8.532   0.798554903115
8.536   0.803227924105
8.54   0.798451852774
8.544   0.80950084193
8.548   0.802729565136
8.552   0.814294505564
8.556   0.813331900076
8.56   0.82378323725
8.564   0.825694580088
8.568   0.820662513755
8.572   0.833014450503
8.576   0.822476797804
8.58   0.825382907855
8.584   0.82792420984
8.588   0.819209057291
8.592   0.831592457404
8.596   0.820149764123
8.6   0.828909249493
8.604   0.820996931864
8.608   0.823849404343
8.612   0.838576821781
8.616   0.833937261388
8.62   0.849734941791
8.624   0.831926764464
8.628   0.827636974502
8.632   0.843958264172
8.636   0.835728530308
8.64   0.837356436023
8.644   0.833139012274
8.648   0.843090567007
8.652   0.832226363497
8.656   0.833325170773
8.66   0.843782967503
8.664   0.842796686205
8.668   0.840867741738
8.672   0.84123599816
8.676   0.835576964842
8.68   0.871824548881
8.684   0.863560479529
8.688   0.853310301697
8.692   0.84287850866
8.696   0.843621412656
8.7   0.849316756801
8.704   0.846767168764
8.708   0.852579525951
8.712   0.874632073307
8.716   0.861488522653
8.72   0.886638850546
8.724   0.852694370147
8.728   0.863238235674
8.732   0.865537473679
8.736   0.86185300774
8.74   0.879600227473
8.744   0.898386549513
8.748   0.867708595219
8.752   0.878764981206
8.756   0.887205992
8.76   0.895372926461
8.764   0.890372211474
8.768   0.895375110059
8.772   0.907628974762
8.776   0.893783816254
8.78   0.884113237339
8.784   0.93109513848
8.788   0.912577273413
8.792   0.895308704355
8.796   0.934077553036
8.8   0.920271574143
8.804   0.934566044409
8.808   0.926625907893
8.812   0.923480489374
8.816   0.932390930965
8.82   0.94008967523
8.824   0.933731303552
8.828   0.949193260779
8.832   0.953468094955
8.836   0.94446126314
8.84   0.959042365444
8.844   0.963287257075
8.848   0.963729742509
8.852   0.948200162057
8.856   0.954034328398
8.86   0.958635004467
8.864   0.973619670286
8.868   0.970005610261
8.872   0.997888613201
8.876   0.977524207758
8.88   0.980964101726
8.884   0.972654693178
8.888   0.973181808984
8.892   0.982164469482
8.896   0.98422374025
8.9   0.972566433829
8.904   0.973247281195
8.908   0.978417464025
8.912   0.981503659656
8.916   0.974593426838
8.92   0.973520829041
8.924   0.988897184431
8.928   0.976260681796
8.932   0.979163926356
8.936   0.986334859192
8.94   1.0
8.944   0.980768733392
8.948   0.974572828453
8.952   0.974762330003
8.956   0.977772653439
8.96   0.98438524285
8.964   0.993526857735
8.968   0.985445211229
8.972   0.979288732428
8.976   0.968114145433
8.98   0.972516900301
8.984   0.962210956932
8.988   0.934159424704
8.992   0.965274541121
8.996   0.964305424227
9.0   0.957003528308
9.004   0.939418946743
9.008   0.934834941532
9.012   0.943267766492
9.016   0.941511193487
9.02   0.934506270125
9.024   0.923439937469
9.028   0.9318245891
9.032   0.928858412135
9.036   0.928922615425
9.04   0.945439057413
9.044   0.907461828368
9.048   0.913832338036
9.052   0.896166984001
9.056   0.892346909282
9.06   0.904534173261
9.064   0.885587073077
9.068   0.894066767176
9.072   0.887055679681
9.076   0.882475171961
9.08   0.879762061318
9.084   0.869293370707
9.088   0.87325217036
9.092   0.885377500911
9.096   0.882870509659
9.1   0.874332871796
9.104   0.879707697186
9.108   0.857824282736
9.112   0.859273168609
9.116   0.840173711553
9.12   0.845225898261
9.124   0.872130054714
9.128   0.866635766935
9.132   0.841329861116
9.136   0.843804746599
9.14   0.837863525393
9.144   0.848238200866
9.148   0.856345594784
9.152   0.844566324275
9.156   0.84040257448
9.16   0.848628261442
9.164   0.839094938086
9.168   0.83252513963
9.172   0.819265797414
9.176   0.83888087704
9.18   0.842587685146
9.184   0.831889135918
9.188   0.816693138196
9.192   0.818069036754
9.196   0.828824270538
9.2   0.839757483843
9.204   0.821286429731
9.208   0.830006024249
9.212   0.845780052749
9.216   0.841285153625
9.22   0.843140855418
9.224   0.84276584464
9.228   0.827404126994
9.232   0.837505053125
9.236   0.810886931623
9.24   0.819081898155
9.244   0.810395064584
9.248   0.807028714448
9.252   0.812104216112
9.256   0.815957444477
9.26   0.821401594392
9.264   0.817262144946
9.268   0.810390423786
9.272   0.802145273712
9.276   0.812265689613
9.28   0.81870644274
9.284   0.81677120349
9.288   0.798191955858
9.292   0.797434653485
9.296   0.830348689094
9.3   0.807424990987
9.304   0.807714779486
9.308   0.820556537093
9.312   0.824025576142
9.316   0.797613220546
9.32   0.803175884689
9.324   0.824301775628
9.328   0.816791845357
9.332   0.81143869192
9.336   0.814077927374
9.34   0.811946758395
9.344   0.813492567023
9.348   0.802936620587
9.352   0.794492164411
9.356   0.791234964008
9.36   0.813449627093
9.364   0.819385889223
9.368   0.809754011524
9.372   0.798801497438
9.376   0.831818024533
9.38   0.83053029403
9.384   0.815374839794
9.388   0.8098982017
9.392   0.805450354932
9.396   0.814125493598
