27.51   0.0194132560666
27.52   0.0183991307497
27.53   0.0171676928649
27.54   0.0202825063383
27.55   0.0211517566099
27.56   0.0215139442231
27.57   0.0212966316552
27.58   0.0200651937704
27.59   0.0181093806592
27.6   0.0214415067005
27.61   0.0198478812025
27.62   0.0210068815647
27.63   0.019340818544
27.64   0.0205722564288
27.65   0.018544005795
27.66   0.0206446939515
27.67   0.0183266932271
27.68   0.0187613183629
27.69   0.0186888808403
27.7   0.0200651937704
27.71   0.0210793190873
27.72   0.0196305686346
27.73   0.0205722564288
27.74   0.0199203187251
27.75   0.019340818544
27.76   0.0192683810214
27.77   0.0199927562477
27.78   0.0231800072438
27.79   0.0192683810214
27.8   0.0182542557045
27.81   0.0204273813836
27.82   0.0200651937704
27.83   0.0202825063383
27.84   0.0197030061572
27.85   0.016950380297
27.86   0.0190510684535
27.87   0.0172401303875
27.88   0.0202100688156
27.89   0.0200651937704
27.9   0.0178920680913
27.91   0.0183266932271
27.92   0.0194132560666
27.93   0.0207895689967
27.94   0.0199203187251
27.95   0.0219485693589
27.96   0.0215863817457
27.97   0.0186164433176
27.98   0.0204998189062
27.99   0.0184715682724
28.0   0.0197030061572
28.01   0.0203549438609
28.02   0.0200651937704
28.03   0.0199927562477
28.04   0.0194856935893
28.05   0.0181818181818
28.06   0.0207171314741
28.07   0.0191959434987
28.08   0.0197030061572
28.09   0.0194132560666
28.1   0.0188337558855
28.11   0.0173125679102
28.12   0.0206446939515
28.13   0.020137631293
28.14   0.0162984425933
28.15   0.0189786309308
28.16   0.0212241941326
28.17   0.0198478812025
28.18   0.0200651937704
28.19   0.019340818544
28.2   0.0208620065194
28.21   0.0191235059761
28.22   0.020137631293
28.23   0.0198478812025
28.24   0.0218036943137
28.25   0.0205722564288
28.26   0.0200651937704
28.27   0.0211517566099
28.28   0.0213690691778
28.29   0.0220210068816
28.3   0.0215863817457
28.31   0.0202100688156
28.32   0.0191235059761
28.33   0.0213690691778
28.34   0.0213690691778
28.35   0.0197754436798
28.36   0.0219485693589
28.37   0.0218036943137
28.38   0.0199203187251
28.39   0.0226005070627
28.4   0.0228178196306
28.41   0.0207895689967
28.42   0.0228178196306
28.43   0.0234697573343
28.44   0.0240492575154
28.45   0.0257877580587
28.46   0.0270191959435
28.47   0.0279608837378
28.48   0.0309308221659
28.49   0.0344078232524
28.5   0.0441868888084
28.51   0.057225642883
28.52   0.0736689605216
28.53   0.0964143426295
28.54   0.140311481347
28.55   0.191017747193
28.56   0.27526258602
28.57   0.38652662079
28.58   0.518869974647
28.59   0.673234335386
28.6   0.832452010141
28.61   0.939659543644
28.62   1.0
28.63   0.99724737414
28.64   0.89148859109
28.65   0.772401303875
28.66   0.585874683086
28.67   0.430423759507
28.68   0.282289025715
28.69   0.17609561753
28.7   0.126548352046
28.71   0.0878667149583
28.72   0.0653386454183
28.73   0.0533864541833
28.74   0.050054328142
28.75   0.0447663889895
28.76   0.0412169503803
28.77   0.039478449837
28.78   0.0395508873597
28.79   0.0360014487505
28.8   0.0328141977544
28.81   0.0310756972112
28.82   0.0290474465773
28.83   0.0277435711699
28.84   0.0250633828323
28.85   0.0247011952191
28.86   0.0245563201739
28.87   0.0226005070627
28.88   0.0222383194495
28.89   0.0229626946758
28.9   0.0223107569721
28.91   0.0197030061572
28.92   0.0207171314741
28.93   0.0212966316552
28.94   0.0205722564288
28.95   0.0205722564288
28.96   0.0207895689967
28.97   0.0223831944947
28.98   0.0210068815647
28.99   0.021731256791
29.0   0.0195581311119
29.01   0.019340818544
29.02   0.0205722564288
29.03   0.0228178196306
29.04   0.0220210068816
29.05   0.0200651937704
29.06   0.0199203187251
29.07   0.0197030061572
29.08   0.0188337558855
29.09   0.0194132560666
29.1   0.0192683810214
29.11   0.0191235059761
29.12   0.0204998189062
29.13   0.0207895689967
29.14   0.0213690691778
29.15   0.0203549438609
29.16   0.0168055052517
29.17   0.0199927562477
29.18   0.0210068815647
29.19   0.0198478812025
29.2   0.0215863817457
29.21   0.0212966316552
29.22   0.0200651937704
29.23   0.02252806954
29.24   0.0194856935893
29.25   0.0178920680913
29.26   0.0174574429555
29.27   0.020137631293
29.28   0.0176023180007
29.29   0.0191959434987
29.3   0.0186164433176
29.31   0.0208620065194
29.32   0.0211517566099
29.33   0.0189786309308
29.34   0.0207171314741
29.35   0.0198478812025
29.36   0.0202100688156
29.37   0.0186888808403
29.38   0.0178196305686
29.39   0.0205722564288
29.4   0.0172401303875
29.41   0.0197030061572
29.42   0.0206446939515
29.43   0.0202100688156
29.44   0.019340818544
29.45   0.0181093806592
29.46   0.0196305686346
29.47   0.0195581311119
29.48   0.0202100688156
29.49   0.0191959434987
29.5   0.0202825063383
29.51   0.0202825063383
29.52   0.0189061934082
29.53   0.0197754436798
29.54   0.018544005795
29.55   0.0190510684535
29.56   0.0188337558855
29.57   0.0202100688156
29.58   0.0191235059761
29.59   0.0215863817457
29.6   0.0171676928649
29.61   0.018544005795
29.62   0.0191959434987
29.63   0.0194132560666
29.64   0.0210068815647
29.65   0.018544005795
29.66   0.0196305686346
29.67   0.0191959434987
29.68   0.0184715682724
29.69   0.0192683810214
29.7   0.0180369431365
29.71   0.0188337558855
29.72   0.0207171314741
29.73   0.0204273813836
29.74   0.0191235059761
29.75   0.0173125679102
29.76   0.0181818181818
29.77   0.0192683810214
29.78   0.0168055052517
29.79   0.0196305686346
