35.02   397.0
35.04   449.0
35.06   417.0
35.08   397.0
35.1   415.0
35.12   432.0
35.14   457.0
35.16   465.0
35.18   456.0
35.2   451.0
35.22   525.0
35.24   467.0
35.26   506.0
35.28   521.0
35.3   519.0
35.32   481.0
35.34   477.0
35.36   514.0
35.38   467.0
35.4   562.0
35.42   483.0
35.44   555.0
35.46   571.0
35.48   586.0
35.5   588.0
35.52   585.0
35.54   612.0
35.56   592.0
35.58   634.0
35.6   621.0
35.62   637.0
35.64   691.0
35.66   766.0
35.68   808.0
35.7   778.0
35.72   865.0
35.74   902.0
35.76   963.0
35.78   974.0
35.8   1101.0
35.82   1219.0
35.84   1292.0
35.86   1472.0
35.88   1580.0
35.9   1790.0
35.92   1862.0
35.94   2079.0
35.96   2390.0
35.98   2606.0
36.0   2975.0
36.02   3555.0
36.04   4035.0
36.06   4501.0
36.08   5299.0
36.1   6118.0
36.12   7112.0
36.14   8004.0
36.16   9160.0
36.18   10147.0
36.2   10902.0
36.22   11326.0
36.24   11373.0
36.26   10841.0
36.28   10428.0
36.3   9621.0
36.32   8804.0
36.34   7884.0
36.36   6964.0
36.38   5903.0
36.4   4965.0
36.42   4341.0
36.44   3683.0
36.46   3151.0
36.48   2782.0
36.5   2329.0
36.52   2081.0
36.54   1861.0
36.56   1540.0
36.58   1473.0
36.6   1304.0
36.62   1153.0
36.64   1137.0
36.66   969.0
36.68   910.0
36.7   842.0
36.72   781.0
36.74   779.0
36.76   694.0
36.78   674.0
36.8   618.0
36.82   539.0
36.84   544.0
36.86   542.0
36.88   504.0
36.9   528.0
36.92   468.0
36.94   433.0
36.96   421.0
36.98   407.0
37.0   384.0
37.02   341.0
37.04   389.0
37.06   358.0
37.08   307.0
37.1   337.0
37.12   308.0
37.14   346.0
37.16   307.0
37.18   297.0
37.2   307.0
37.22   276.0
37.24   289.0
37.26   273.0
37.28   261.0
37.3   245.0
37.32   240.0
37.34   253.0
37.36   234.0
37.38   235.0
37.4   243.0
37.42   237.0
37.44   222.0
37.46   205.0
37.48   225.0
37.5   214.0
37.52   192.0
37.54   200.0
37.56   210.0
37.58   206.0
37.6   199.0
37.62   204.0
37.64   185.0
37.66   205.0
37.68   183.0
37.7   176.0
37.72   203.0
37.74   182.0
37.76   160.0
37.78   186.0
37.8   167.0
37.82   151.0
37.84   148.0
37.86   146.0
37.88   156.0
37.9   155.0
37.92   187.0
37.94   171.0
37.96   149.0
37.98   156.0
38.0   179.0
