16.004   0.0871957338988
16.008   0.0875793785955
16.012   0.0865360351304
16.016   0.0845205408211
16.02   0.0847668158831
16.024   0.0850982699469
16.028   0.0868609009132
16.032   0.0853827085521
16.036   0.0865903808276
16.04   0.086869066482
16.044   0.0855164743838
16.048   0.0867670627063
16.052   0.0877856647643
16.056   0.0855969149422
16.06   0.0860699071442
16.064   0.0854805689066
16.068   0.0862191806102
16.072   0.0849147427884
16.076   0.0849381712838
16.08   0.0841664816192
16.084   0.0854651359444
16.088   0.0842163461999
16.092   0.083914556545
16.096   0.0872935795183
16.1   0.0866350623692
16.104   0.0878698050933
16.108   0.085744233394
16.112   0.086382155405
16.116   0.0869678694407
16.12   0.0857786964403
16.124   0.0863308054493
16.128   0.0863368562576
16.132   0.0867531066699
16.136   0.0859201270603
16.14   0.0864174277234
16.144   0.0865253509458
16.148   0.0856533502938
16.152   0.0848948852679
16.156   0.0868251375927
16.16   0.0836596679384
16.164   0.0853587868768
16.168   0.0859616010136
16.172   0.0867296739245
16.176   0.0870951033291
16.18   0.0868527810124
16.184   0.0869106397261
16.188   0.0865620635631
16.192   0.0850104836037
16.196   0.087223800122
16.2   0.0866659179576
16.204   0.0855364626123
16.208   0.0846873747093
16.212   0.0855257354134
16.216   0.0862008308843
16.22   0.0864586475816
16.224   0.0851477177385
16.228   0.085716977181
16.232   0.088138403312
16.236   0.0862346788445
16.24   0.0856289826533
16.244   0.0872145132664
16.248   0.0868936882728
16.252   0.0856138609339
16.256   0.087336357611
16.26   0.0873923508051
16.264   0.0867415375637
16.268   0.0870750827173
16.272   0.0860510467319
16.276   0.0862376922943
16.28   0.0864994573224
16.284   0.0880865599664
16.288   0.0872943200176
16.292   0.0876357752959
16.296   0.0868877251552
16.3   0.087107974669
16.304   0.0855482659077
16.308   0.0866312745762
16.312   0.0884040605931
16.316   0.0880470994521
16.32   0.0874132657108
16.324   0.0848881462172
16.328   0.0848783878994
16.332   0.0855415972503
16.336   0.087803667484
16.34   0.0875876466589
16.344   0.0870764828227
16.348   0.0881847478832
16.352   0.0872848870669
16.356   0.0865692135618
16.36   0.0877903730911
16.364   0.0880510917899
16.368   0.0894589265067
16.372   0.0876944629468
16.376   0.0861778191915
16.38   0.0877459771715
16.384   0.0881891417735
16.388   0.0888903944788
16.392   0.0878152733333
16.396   0.086707192814
16.4   0.0869911782061
16.404   0.086740670311
16.408   0.0867475020445
16.412   0.0874775100377
16.416   0.088728127809
16.42   0.0874094201167
16.424   0.0886658730291
16.428   0.0879449997078
16.432   0.0872107886534
16.436   0.0886625473693
16.44   0.0881349087861
16.444   0.087854983808
16.448   0.0880960829312
16.452   0.0902723643465
16.456   0.0878830117377
16.46   0.0877889770495
16.464   0.0897483688668
16.468   0.0869098965983
16.472   0.0887085415844
16.476   0.0883265870003
16.48   0.0890912652774
16.484   0.0879957712219
16.488   0.088832569102
16.492   0.090196021202
16.496   0.0895585407351
16.5   0.0902203608568
16.504   0.0888042298368
16.508   0.0898422316261
16.512   0.0897681292442
16.516   0.0914096029133
16.52   0.0892388126919
16.524   0.0878364364428
16.528   0.0927516015243
16.532   0.0890656599637
16.536   0.0883346716153
16.54   0.0904742251795
16.544   0.0896591861117
16.548   0.0908151134381
16.552   0.0899428885002
16.556   0.0907303508549
16.56   0.0906217768959
16.564   0.090363853877
16.568   0.0894720241889
16.572   0.0903781999879
16.576   0.09145547086
16.58   0.0908520132407
16.584   0.0926719731722
16.588   0.0929550864707
16.592   0.0914074785251
16.596   0.0908237256648
16.6   0.0939221761464
16.604   0.0914790988165
16.608   0.0917499559891
16.612   0.0916436038756
16.616   0.0920933805247
16.62   0.0930051445345
16.624   0.0915901383
16.628   0.0937528101552
16.632   0.0914852164176
16.636   0.0903914358779
16.64   0.0900815114032
16.644   0.0938093344352
16.648   0.0934569921665
16.652   0.0931345668692
16.656   0.0900116083247
16.66   0.0922503321465
16.664   0.0918335330065
16.668   0.0935998568783
16.672   0.0938169723848
16.676   0.0961848544116
16.68   0.0935291097895
16.684   0.0932229204853
16.688   0.0933313167326
16.692   0.0947934719196
16.696   0.0956437580847
16.7   0.0938072698479
16.704   0.0956281330902
16.708   0.0934528588983
16.712   0.0950637178894
16.716   0.0953244840519
16.72   0.0979732572748
16.724   0.0966402211538
16.728   0.0967638376536
16.732   0.0960596468357
16.736   0.095702544718
16.74   0.0951611640911
16.744   0.0956880067929
16.748   0.096961786738
16.752   0.097855958443
16.756   0.0980365563377
16.76   0.0958604337349
16.764   0.0974210771823
16.768   0.0983567214686
16.772   0.0978521284688
16.776   0.099022615424
16.78   0.0979149995845
16.784   0.0988235829745
16.788   0.0985955605797
16.792   0.0988749363592
16.796   0.0995793331609
16.8   0.100455349987
16.804   0.100469227723
16.808   0.0988429239833
16.812   0.0987836989094
16.816   0.100644800674
16.82   0.101134112472
16.824   0.102989889845
16.828   0.0990465711301
16.832   0.100468871275
16.836   0.101675851766
16.84   0.101628536376
16.844   0.10135704306
16.848   0.100821113647
16.852   0.103668553997
16.856   0.105727387908
16.86   0.102051910374
16.864   0.102415160179
16.868   0.101875656247
16.872   0.10226772922
16.876   0.103529353105
16.88   0.103427169018
16.884   0.105878738223
16.888   0.104429737343
16.892   0.103981665337
16.896   0.104844883063
16.9   0.106894077306
16.904   0.105919622299
16.908   0.106453324433
16.912   0.105253427899
16.916   0.10570333637
16.92   0.10514456318
16.924   0.106139416292
16.928   0.107548006656
16.932   0.10773218518
16.936   0.107836071031
16.94   0.109199899198
16.944   0.108971856351
16.948   0.106890321128
16.952   0.108210668305
16.956   0.108447373485
16.96   0.110670835484
16.964   0.107992399546
16.968   0.10907100654
16.972   0.108963545653
16.976   0.110938538489
16.98   0.112041963938
16.984   0.109925737706
16.988   0.110503851863
16.992   0.110544159434
16.996   0.112478482468
17.0   0.112502700812
17.004   0.111623658498
17.008   0.1117550484
17.012   0.11103940424
17.016   0.11183151007
17.02   0.111221236602
17.024   0.114013257118
17.028   0.114291493588
17.032   0.112884107327
17.036   0.116072901838
17.04   0.11515741914
17.044   0.115062844353
17.048   0.116039568011
17.052   0.117595747584
17.056   0.118509321713
17.06   0.118252138805
17.064   0.117970225485
17.068   0.119349558837
17.072   0.120010785137
17.076   0.119539516426
17.08   0.121215438587
17.084   0.12026564133
17.088   0.121274629469
17.092   0.121938215009
17.096   0.122806676084
17.1   0.120914055717
17.104   0.123294180556
17.108   0.12536651538
17.112   0.122625834293
17.116   0.123858688782
17.12   0.126310460391
17.124   0.125465915543
17.128   0.125667925265
17.132   0.127699255324
17.136   0.126918081362
17.14   0.127860823346
17.144   0.12842236691
17.148   0.129355065797
17.152   0.130287340009
17.156   0.13026430218
17.16   0.130290498257
17.164   0.129851210624
17.168   0.132610559255
17.172   0.132568293886
17.176   0.130525739579
17.18   0.132626679414
17.184   0.13623504204
17.188   0.136570052443
17.192   0.136288924076
17.196   0.136357234654
17.2   0.134932402965
17.204   0.136486442542
17.208   0.138394610728
17.212   0.135942532551
17.216   0.139965186917
17.22   0.140551983099
17.224   0.141059977911
17.228   0.142663028216
17.232   0.142516291559
17.236   0.142097505877
17.24   0.143370351795
17.244   0.144691142213
17.248   0.143049199508
17.252   0.144879070957
17.256   0.150604766456
17.26   0.147055258232
17.264   0.147352704411
17.268   0.150498768672
17.272   0.152379473992
17.276   0.154512662532
17.28   0.153366076273
17.284   0.154064221761
17.288   0.156727326845
17.292   0.156780774217
17.296   0.160016758408
17.3   0.158829499764
17.304   0.162613329382
17.308   0.16223020395
17.312   0.163486188325
17.316   0.164509405567
17.32   0.166318316655
17.324   0.168678258312
17.328   0.168731979104
17.332   0.16662197701
17.336   0.167102078064
17.34   0.169432588526
17.344   0.173929325576
17.348   0.175267365464
17.352   0.181378514193
17.356   0.179188658711
17.36   0.181856278052
17.364   0.183616100852
17.368   0.182289501221
17.372   0.183428613579
17.376   0.185946417785
17.38   0.187565131626
17.384   0.188651582526
17.388   0.19116839857
17.392   0.192230638151
17.396   0.193943337532
17.4   0.196449807774
17.404   0.193820866286
17.408   0.197917391222
17.412   0.204032634347
17.416   0.202079049104
17.42   0.207601626558
17.424   0.208804805303
17.428   0.20901451668
17.432   0.209873792852
17.436   0.20998486953
17.44   0.214888182582
17.444   0.219039996266
17.448   0.22155426974
17.452   0.22146018683
17.456   0.226117610446
17.46   0.224585798849
17.464   0.231563453774
17.468   0.231932585624
17.472   0.23649308075
17.476   0.233779729131
17.48   0.242208148948
17.484   0.241689701724
17.488   0.247215043629
17.492   0.253606277741
17.496   0.256380438731
17.5   0.255755021584
17.504   0.263331973569
17.508   0.26520746628
17.512   0.26653519714
17.516   0.272275393238
17.52   0.272362268871
17.524   0.275059867099
17.528   0.286746033649
17.532   0.283295569729
17.536   0.28761161619
17.54   0.295677417434
17.544   0.297188960109
17.548   0.301540048382
17.552   0.304224940384
17.556   0.307592443431
17.56   0.31786600379
17.564   0.321284165626
17.568   0.325562480039
17.572   0.328422222564
17.576   0.335635196969
17.58   0.341758860606
17.584   0.347756144186
17.588   0.351861824714
17.592   0.36396895721
17.596   0.361676341579
17.6   0.374804556808
17.604   0.380670119156
17.608   0.382219094503
17.612   0.38877498619
17.616   0.397742283017
17.62   0.40528769288
17.624   0.412620018042
17.628   0.415886903304
17.632   0.426465327289
17.636   0.432152390949
17.64   0.440410805079
17.644   0.447480232022
17.648   0.456853439316
17.652   0.467131072875
17.656   0.470770638427
17.66   0.478337426396
17.664   0.486911800944
17.668   0.498164198283
17.672   0.512967954548
17.676   0.521744321525
17.68   0.528229830821
17.684   0.544214947627
17.688   0.560065116907
17.692   0.56658592293
17.696   0.568976697515
17.7   0.58215990105
17.704   0.596160284605
17.708   0.605068237383
17.712   0.626827252131
17.716   0.622825330634
17.72   0.644955205266
17.724   0.656027994124
17.728   0.66680428769
17.732   0.682077521692
17.736   0.69724916633
17.74   0.711093854765
17.744   0.725040871597
17.748   0.735034603451
17.752   0.743767805507
17.756   0.758492594131
17.76   0.771547645515
17.764   0.784695076293
17.768   0.798907853086
17.772   0.820422162615
17.776   0.828918406432
17.78   0.847014747565
17.784   0.854189197568
17.788   0.868224602185
17.792   0.880396326833
17.796   0.893274521774
17.8   0.89635902556
17.804   0.919156950915
17.808   0.92048042234
17.812   0.934711514494
17.816   0.941927924137
17.82   0.945809936372
17.824   0.958339560762
17.828   0.962398312583
17.832   0.978249009184
17.836   0.975800306835
17.84   0.995431755406
17.844   0.993214632892
17.848   0.992119657315
17.852   0.994679777959
17.856   1.0
17.86   0.998553244916
17.864   0.997742001951
17.868   0.991617073559
17.872   0.999563655448
17.876   0.995479677676
17.88   0.993084492908
17.884   0.989847785292
17.888   0.982670689966
17.892   0.975116841828
17.896   0.971229304486
17.9   0.958582867155
17.904   0.956614328077
17.908   0.953726858226
17.912   0.939438785055
17.916   0.938130463013
17.92   0.914515067615
17.924   0.903263680003
17.928   0.891229752287
17.932   0.891821561924
17.936   0.874337455811
17.94   0.868176557789
17.944   0.856297392246
17.948   0.844685963469
17.952   0.8350963483
17.956   0.825450787394
17.96   0.816307256165
17.964   0.793656549121
17.968   0.785166006305
17.972   0.764104453633
17.976   0.757993594006
17.98   0.7424953942
17.984   0.730086743034
17.988   0.718198910989
17.992   0.702407880372
17.996   0.685994143744
18.0   0.683023212768
18.004   0.669971305566
18.008   0.658343740705
18.012   0.648683115723
18.016   0.632261837276
18.02   0.619724299574
18.024   0.607561177687
18.028   0.592201535699
18.032   0.592362704768
18.036   0.580256216148
18.04   0.567622845653
18.044   0.556527572113
18.048   0.545519198398
18.052   0.532290228701
18.056   0.528454446849
18.06   0.518205457021
18.064   0.505619379518
18.068   0.496506812394
18.072   0.484794727951
18.076   0.479889662506
18.08   0.46931115189
18.084   0.45803932692
18.088   0.45455958282
18.092   0.441528958383
18.096   0.437570620243
18.1   0.431596419022
18.104   0.428214666815
18.108   0.417051127808
18.112   0.408895897739
18.116   0.403359743517
18.12   0.394089026728
18.124   0.387555355246
18.128   0.378613252451
18.132   0.372123434673
18.136   0.36913739624
18.14   0.364127041636
18.144   0.357326377178
18.148   0.353714439833
18.152   0.346860340747
18.156   0.341056986764
18.16   0.331851305342
18.164   0.327557493562
18.168   0.31938172292
18.172   0.322085935793
18.176   0.315210690546
18.18   0.314495682696
18.184   0.311578128437
18.188   0.302691501353
18.192   0.296412810354
18.196   0.292927461742
18.2   0.290051272996
18.204   0.287009907093
18.208   0.285382369991
18.212   0.278695614734
18.216   0.276084528708
18.22   0.270032958469
18.224   0.268304776566
18.228   0.26234000117
18.232   0.263305407922
18.236   0.256945414335
18.24   0.258546076992
18.244   0.253784257963
18.248   0.251036772901
18.252   0.248421176167
18.256   0.245681894134
18.26   0.24144842072
18.264   0.24274846943
18.268   0.235672963681
18.272   0.229979365276
18.276   0.228558623989
18.28   0.225734442349
18.284   0.226491585676
18.288   0.219502356796
18.292   0.221807106231
18.296   0.213695664618
18.3   0.21441102419
18.304   0.210361424866
18.308   0.209303851933
18.312   0.204627641172
18.316   0.209318504084
18.32   0.205085670472
18.324   0.198096575366
18.328   0.198672258634
18.332   0.20132298361
18.336   0.199735281619
18.34   0.196593163273
18.344   0.194621559138
18.348   0.195479515862
18.352   0.19224148691
18.356   0.192909194185
18.36   0.189163497921
18.364   0.185855279918
18.368   0.181613007746
18.372   0.182522307747
18.376   0.180914457257
18.38   0.176666154016
18.384   0.177648551271
18.388   0.177804722321
18.392   0.172390835367
18.396   0.173932719015
18.4   0.174183534675
18.404   0.167441204588
18.408   0.167551961176
18.412   0.170584042705
18.416   0.167742001479
18.42   0.166414931038
18.424   0.165319093338
18.428   0.167639955708
18.432   0.163689372373
18.436   0.161449102583
18.44   0.162020442241
18.444   0.16218893312
18.448   0.159115879911
18.452   0.158590324463
18.456   0.155887375711
18.46   0.15556832947
18.464   0.152171914164
18.468   0.155078244109
18.472   0.152016652729
18.476   0.151444014305
18.48   0.151814596145
18.484   0.150060839162
18.488   0.148529387909
18.492   0.146806159673
18.496   0.146872374599
18.5   0.146755299882
18.504   0.145349923932
18.508   0.14598679456
18.512   0.145314384872
18.516   0.144828323601
18.52   0.144153949758
18.524   0.140852765602
18.528   0.139632346175
18.532   0.14043793339
18.536   0.136772963752
18.54   0.139906363922
18.544   0.137001615764
18.548   0.132773101176
18.552   0.136115002371
18.556   0.136469539901
18.56   0.133796882279
18.564   0.132657600633
18.568   0.13231345973
18.572   0.131249881972
18.576   0.132779354915
18.58   0.132826825336
18.584   0.13274392241
18.588   0.131559822959
18.592   0.129164613832
18.596   0.131382294833
18.6   0.127050866094
18.604   0.125302286031
18.608   0.129642315214
18.612   0.126618150551
18.616   0.125645759927
18.62   0.124885140626
18.624   0.126301707119
18.628   0.126187386103
18.632   0.122920874746
18.636   0.12463771903
18.64   0.124333809555
18.644   0.122753666128
18.648   0.124450322154
18.652   0.119456422356
18.656   0.12231100166
18.66   0.121046426011
18.664   0.122235790193
18.668   0.12092880055
18.672   0.11965405885
18.676   0.119229988679
18.68   0.117805795378
18.684   0.117604121199
18.688   0.11960529193
18.692   0.118317498288
18.696   0.115552305886
18.7   0.116039550417
18.704   0.117737032507
18.708   0.116842718387
18.712   0.116656330884
18.716   0.111930352813
18.72   0.115502443589
18.724   0.113276563365
18.728   0.116063009891
18.732   0.115465557358
18.736   0.114962868139
18.74   0.110577243235
18.744   0.11174915932
18.748   0.109888407346
18.752   0.110498139281
18.756   0.10958024712
18.76   0.110077673656
18.764   0.111686545564
18.768   0.111257490953
18.772   0.10966208019
18.776   0.109236038077
18.78   0.111008077388
18.784   0.109040912344
18.788   0.109245707951
18.792   0.107946654862
18.796   0.108195930843
18.8   0.106959714724
18.804   0.109871547021
18.808   0.108714656367
18.812   0.106924267672
18.816   0.108375566015
18.82   0.10653624448
18.824   0.104763344286
18.828   0.104958548088
18.832   0.105715753606
18.836   0.106049891792
18.84   0.106327637301
18.844   0.105928228486
18.848   0.103859693567
18.852   0.106143599455
18.856   0.104823442714
18.86   0.103626816782
18.864   0.104600005859
18.868   0.102098215038
18.872   0.103376440628
18.876   0.102916361417
18.88   0.102672949194
18.884   0.100778975765
18.888   0.102413432934
18.892   0.102296646693
18.896   0.0989929018891
18.9   0.100322234877
18.904   0.101561918721
18.908   0.100323400747
18.912   0.10033992647
18.916   0.102100900106
18.92   0.101089368075
18.924   0.100363722575
18.928   0.099083122062
18.932   0.101140154615
18.936   0.0980461433591
18.94   0.0959752963749
18.944   0.0960668947553
18.948   0.0997507574662
18.952   0.0994577010878
18.956   0.100354239272
18.96   0.0995467261035
18.964   0.0982829757959
18.968   0.0993111242546
18.972   0.0984643075995
18.976   0.0981558110566
18.98   0.0958679236349
18.984   0.101023372855
18.988   0.0992663953651
18.992   0.0993952065247
18.996   0.0978369960817
19.0   0.0986344168469
19.004   0.0971327731547
19.008   0.0958365361054
19.012   0.0949011921778
19.016   0.0963061990811
19.02   0.0964196282542
19.024   0.0944119492556
19.028   0.0960545573414
19.032   0.097654769057
19.036   0.0954578379115
19.04   0.0950193405053
19.044   0.0954324206563
19.048   0.0953884959559
19.052   0.0940915906464
19.056   0.0946444741787
19.06   0.0934548194442
19.064   0.0941350795853
19.068   0.0949769450674
19.072   0.0941632410173
19.076   0.0939429966151
19.08   0.0928249113691
19.084   0.0926652612716
19.088   0.0939683675853
19.092   0.0924079071909
19.096   0.0935794521147
19.1   0.0931117080274
19.104   0.0942710160809
19.108   0.0925818472814
19.112   0.0933826038139
19.116   0.093169652586
19.12   0.0924278797741
19.124   0.0926150179665
19.128   0.0930556189925
19.132   0.0943247690694
19.136   0.0922285600945
19.14   0.0923385503775
19.144   0.089517401803
19.148   0.0895717000952
19.152   0.0927884076183
19.156   0.0943088129813
19.16   0.0919815417657
19.164   0.0933302579214
19.168   0.0907688063871
19.172   0.0918555718048
19.176   0.0911326284992
19.18   0.0905282198633
19.184   0.090501380861
19.188   0.0913977560742
19.192   0.0924667545171
19.196   0.0929583206395
19.2   0.0911567908272
19.204   0.0892640656894
19.208   0.0904364124638
19.212   0.0923267283678
19.216   0.0911863758505
19.22   0.0892027243157
19.224   0.0912822351146
19.228   0.090490633057
19.232   0.0909563023447
19.236   0.0886262745103
19.24   0.089637103709
19.244   0.0894884298573
19.248   0.089152228526
19.252   0.0890634633182
19.256   0.0916032546458
19.26   0.0931293864348
19.264   0.0904815976572
19.268   0.0899194113024
19.272   0.0907152118722
19.276   0.0908079994095
19.28   0.0872409992945
19.284   0.0898663786784
19.288   0.0854210022368
19.292   0.0889352445481
19.296   0.0886064823959
19.3   0.0884334969255
19.304   0.0894758707159
19.308   0.0883068504043
19.312   0.0883598812391
19.316   0.0870582006714
19.32   0.088102924085
19.324   0.0873187826093
19.328   0.0871324924914
19.332   0.0882649855947
19.336   0.0891479173154
19.34   0.0879717137276
19.344   0.0878611301859
19.348   0.088529315893
19.352   0.0886587040234
19.356   0.0887194442239
19.36   0.086117738907
19.364   0.0862111907198
19.368   0.0875724836118
19.372   0.0896179019667
19.376   0.0892224606259
19.38   0.0889224478223
19.384   0.0880412444875
19.388   0.0884361267636
19.392   0.0875538967122
19.396   0.0883241519711
19.4   0.0890511600106
19.404   0.0886392531633
19.408   0.0874970951108
19.412   0.0880904278963
19.416   0.087666033047
19.42   0.0882317433138
19.424   0.0872502853393
19.428   0.0892560574318
19.432   0.0881957210989
19.436   0.0872746985023
19.44   0.0874895117685
19.444   0.0879038681891
19.448   0.0875398143202
19.452   0.0877582400901
19.456   0.0891814490703
19.46   0.0877910381715
19.464   0.0877180096203
19.468   0.0892364789463
19.472   0.0882805355383
19.476   0.0876232491746
19.48   0.0878999826513
19.484   0.0884537359158
19.488   0.0879913314057
19.492   0.0882118238456
19.496   0.0865986731743
