35.604   0.476053892255
35.608   0.473054110136
35.612   0.472240050289
35.616   0.473982935463
35.62   0.483798061802
35.624   0.488096541827
35.628   0.479709493319
35.632   0.478500140279
35.636   0.468698802919
35.64   0.490346567685
35.644   0.484155532035
35.648   0.482394463674
35.652   0.482388063535
35.656   0.485206368051
35.66   0.484042347717
35.664   0.480874684811
35.668   0.483824423715
35.672   0.488108382849
35.676   0.491804364003
35.68   0.490331377799
35.684   0.492374992741
35.688   0.49430359517
35.692   0.500962016481
35.696   0.494247699193
35.7   0.485151461713
35.704   0.495848122775
35.708   0.494894268526
35.712   0.49630750383
35.716   0.500373315209
35.72   0.498100221465
35.724   0.494044827074
35.728   0.509352167408
35.732   0.505492810162
35.736   0.498957157028
35.74   0.49679335695
35.744   0.499092090582
35.748   0.497070586001
35.752   0.506368930876
35.756   0.502944062469
35.76   0.505912148749
35.764   0.505522169897
35.768   0.510320704478
35.772   0.508241121732
35.776   0.506346462367
35.78   0.502860647186
35.784   0.518682354895
35.788   0.522506346454
35.792   0.524404697027
35.796   0.523633994698
35.8   0.528411381847
35.804   0.523095148188
35.808   0.525574309121
35.812   0.533353908427
35.816   0.544544576906
35.82   0.546177603032
35.824   0.531552706427
35.828   0.553979458347
35.832   0.54959853515
35.836   0.541654943745
35.84   0.551909979314
35.844   0.558178103356
35.848   0.559230083096
35.852   0.562625772808
35.856   0.563407089033
35.86   0.562505078236
35.864   0.581120156558
35.868   0.590414899625
35.872   0.585078416976
35.876   0.582226936054
35.88   0.595912630378
35.884   0.588497288431
35.888   0.607159175005
35.892   0.591476567715
35.896   0.59223955489
35.9   0.610399076112
35.904   0.603269556438
35.908   0.604477554509
35.912   0.616940613494
35.916   0.619803401142
35.92   0.628182320769
35.924   0.626107567296
35.928   0.638697723046
35.932   0.642703693769
35.936   0.649532231547
35.94   0.658366546855
35.944   0.650740102271
35.948   0.654765709474
35.952   0.662057813409
35.956   0.696683823767
35.96   0.679430403361
35.964   0.690769069997
35.968   0.706619939052
35.972   0.706272803053
35.976   0.708301613279
35.98   0.715424164492
35.984   0.722627494029
35.988   0.728460697987
35.992   0.729476152205
35.996   0.733132750414
36.0   0.757154971873
36.004   0.756638391016
36.008   0.759350473936
36.012   0.783922688326
36.016   0.777749346392
36.02   0.783457315082
36.024   0.789998121467
36.028   0.807771850372
36.032   0.810488166791
36.036   0.821133608657
36.04   0.827850740317
36.044   0.833333148567
36.048   0.840478274256
36.052   0.862763070775
36.056   0.863143206448
36.06   0.856336999188
36.064   0.88033558556
36.068   0.882063321193
36.072   0.889060365656
36.076   0.913401578888
36.08   0.899283289274
36.084   0.90814296888
36.088   0.915142454483
36.092   0.936764287021
36.096   0.943388145202
36.1   0.95901396891
36.104   0.948552253878
36.108   0.946895136829
36.112   0.963436503348
36.116   0.980706040986
36.12   0.968504138444
36.124   0.964529831728
36.128   0.974892084299
36.132   0.976519298046
36.136   0.981022429369
36.14   0.981135309986
36.144   0.986179399177
36.148   0.996220022999
36.152   0.974685624208
36.156   0.994921364473
36.16   0.997785446154
36.164   0.993914481368
36.168   1.0
36.172   0.991952697307
36.176   0.993526243724
36.18   0.987701515286
36.184   0.991031310374
36.188   0.993298584789
36.192   0.984653633475
36.196   0.975207704907
36.2   0.984544635969
36.204   0.983307541409
36.208   0.958150893752
36.212   0.964378101096
36.216   0.950444428582
36.22   0.949524170909
36.224   0.93377149476
36.228   0.934858028955
36.232   0.942770952681
36.236   0.93793792616
36.24   0.928680672118
36.244   0.913800171022
36.248   0.903738702281
36.252   0.903009247603
36.256   0.891332898225
36.26   0.874423830928
36.264   0.865125772682
36.268   0.874451555587
36.272   0.859751639634
36.276   0.848987597241
36.28   0.840188506725
36.284   0.821604269503
36.288   0.804352554939
36.292   0.801484638866
36.296   0.800391970862
36.3   0.791742967233
36.304   0.783497746905
36.308   0.766794887896
36.312   0.764053458183
36.316   0.752869149416
36.32   0.733732382849
36.324   0.725243942901
36.328   0.735341620624
36.332   0.727249043153
36.336   0.72074505824
36.34   0.696780683884
36.344   0.68980553272
36.348   0.681987147148
36.352   0.674639282622
36.356   0.671785531331
36.36   0.666713733053
36.364   0.655109099648
36.368   0.65611084556
36.372   0.645706989835
36.376   0.629254638918
36.38   0.637023764885
36.384   0.627341189541
36.388   0.621820981525
36.392   0.603485140613
36.396   0.598135851713
36.4   0.593949225728
36.404   0.584973654667
36.408   0.587471522716
36.412   0.583030887915
36.416   0.56831091932
36.42   0.556860217492
36.424   0.557034834316
36.428   0.558909541581
36.432   0.549253281265
36.436   0.540427348636
36.44   0.530776129192
36.444   0.525851881371
36.448   0.543692682687
36.452   0.529967610434
36.456   0.502163141861
36.46   0.510367740374
36.464   0.514711676024
36.468   0.505442062972
36.472   0.498196527722
36.476   0.498085138626
36.48   0.497202545338
36.484   0.490894440285
36.488   0.474545014251
36.492   0.48306793077
36.496   0.478416394397
36.5   0.47406121766
36.504   0.47571455036
36.508   0.468110853785
36.512   0.477825747561
36.516   0.467366238447
36.52   0.463333602724
36.524   0.455216671667
36.528   0.459944239267
36.532   0.453463457827
36.536   0.445522201418
36.54   0.444484136698
36.544   0.439208294952
36.548   0.428911643705
36.552   0.434815498887
36.556   0.433371351151
36.56   0.431478308388
36.564   0.431485163608
36.568   0.434603493164
36.572   0.432626759785
36.576   0.427059810302
36.58   0.430668970748
36.584   0.428362327279
36.588   0.413143762899
36.592   0.4146481899
36.596   0.408473601716
36.6   0.411567877876
36.604   0.410688610916
36.608   0.408395508577
36.612   0.407791138118
36.616   0.404756442238
36.62   0.399810894519
36.624   0.405682495877
36.628   0.40274011503
36.632   0.395549483857
36.636   0.393216851663
36.64   0.405763122927
36.644   0.399343666803
36.648   0.407899428695
36.652   0.389289719423
36.656   0.382548099534
36.66   0.3794421434
36.664   0.385140544767
36.668   0.389310873612
36.672   0.388424347622
36.676   0.387619176422
36.68   0.383763478927
36.684   0.380735076887
36.688   0.375796698064
36.692   0.381771189172
36.696   0.380037191085
