35.02   59.0
35.04   51.0
35.06   54.0
35.08   38.0
35.1   45.0
35.12   48.0
35.14   50.0
35.16   62.0
35.18   52.0
35.2   49.0
35.22   50.0
35.24   57.0
35.26   45.0
35.28   55.0
35.3   56.0
35.32   64.0
35.34   48.0
35.36   48.0
35.38   63.0
35.4   49.0
35.42   54.0
35.44   100.0
35.46   75.0
35.48   80.0
35.5   83.0
35.52   64.0
35.54   68.0
35.56   83.0
35.58   82.0
35.6   123.0
35.62   111.0
35.64   94.0
35.66   129.0
35.68   129.0
35.7   102.0
35.72   139.0
35.74   151.0
35.76   146.0
35.78   175.0
35.8   230.0
35.82   261.0
35.84   249.0
35.86   312.0
35.88   322.0
35.9   374.0
35.92   447.0
35.94   547.0
35.96   669.0
35.98   830.0
36.0   1017.0
36.02   1286.0
36.04   1586.0
36.06   2170.0
36.08   2701.0
36.1   3584.0
36.12   4760.0
36.14   6509.0
36.16   9499.0
36.18   14122.0
36.2   19597.0
36.22   22847.0
36.24   20848.0
36.26   14756.0
36.28   8752.0
36.3   5030.0
36.32   3501.0
36.34   3128.0
36.36   2275.0
36.38   1857.0
36.4   1383.0
36.42   885.0
36.44   464.0
36.46   501.0
36.48   366.0
36.5   344.0
36.52   423.0
36.54   384.0
36.56   351.0
36.58   319.0
36.6   189.0
36.62   163.0
36.64   147.0
36.66   108.0
36.68   122.0
36.7   144.0
36.72   129.0
36.74   115.0
36.76   114.0
36.78   110.0
36.8   78.0
36.82   76.0
36.84   82.0
36.86   68.0
36.88   78.0
36.9   54.0
36.92   56.0
36.94   56.0
36.96   56.0
36.98   50.0
37.0   65.0
37.02   40.0
37.04   65.0
37.06   62.0
37.08   69.0
37.1   35.0
37.12   39.0
37.14   24.0
37.16   40.0
37.18   29.0
37.2   53.0
37.22   46.0
37.24   46.0
37.26   15.0
37.28   47.0
37.3   38.0
37.32   24.0
37.34   25.0
37.36   37.0
37.38   35.0
37.4   29.0
37.42   47.0
37.44   36.0
37.46   29.0
37.48   34.0
37.5   25.0
37.52   23.0
37.54   40.0
37.56   28.0
37.58   23.0
37.6   36.0
37.62   35.0
37.64   10.0
37.66   30.0
37.68   34.0
37.7   23.0
37.72   19.0
37.74   47.0
37.76   26.0
37.78   32.0
37.8   42.0
37.82   41.0
37.84   29.0
37.86   29.0
37.88   37.0
37.9   27.0
37.92   23.0
37.94   30.0
37.96   29.0
37.98   27.0
38.0   34.0
