58.01   0.103816793893
58.02   0.0851145038168
58.03   0.0858778625954
58.04   0.0690839694656
58.05   0.0874045801527
58.06   0.0935114503817
58.07   0.075572519084
58.08   0.075572519084
58.09   0.0858778625954
58.1   0.0854961832061
58.11   0.0809160305344
58.12   0.0729007633588
58.13   0.0748091603053
58.14   0.0793893129771
58.15   0.0809160305344
58.16   0.0912213740458
58.17   0.0824427480916
58.18   0.0713740458015
58.19   0.0770992366412
58.2   0.0854961832061
58.21   0.087786259542
58.22   0.0847328244275
58.23   0.0721374045802
58.24   0.0774809160305
58.25   0.0958015267176
58.26   0.0931297709924
58.27   0.0854961832061
58.28   0.0610687022901
58.29   0.0832061068702
58.3   0.0839694656489
58.31   0.0824427480916
58.32   0.0854961832061
58.33   0.0885496183206
58.34   0.0893129770992
58.35   0.087786259542
58.36   0.0916030534351
58.37   0.0885496183206
58.38   0.087786259542
58.39   0.0893129770992
58.4   0.0767175572519
58.41   0.0923664122137
58.42   0.110305343511
58.43   0.0900763358779
58.44   0.0954198473282
58.45   0.103816793893
58.46   0.101526717557
58.47   0.093893129771
58.48   0.11106870229
58.49   0.0992366412214
58.5   0.110305343511
58.51   0.103053435115
58.52   0.103816793893
58.53   0.0954198473282
58.54   0.0954198473282
58.55   0.115648854962
58.56   0.104580152672
58.57   0.106106870229
58.58   0.107633587786
58.59   0.11641221374
58.6   0.128625954198
58.61   0.127099236641
58.62   0.127099236641
58.63   0.131679389313
58.64   0.119083969466
58.65   0.14427480916
58.66   0.133969465649
58.67   0.153435114504
58.68   0.151145038168
58.69   0.163740458015
58.7   0.16106870229
58.71   0.162595419847
58.72   0.196183206107
58.73   0.186641221374
58.74   0.187404580153
58.75   0.224809160305
58.76   0.18893129771
58.77   0.214503816794
58.78   0.220992366412
58.79   0.251908396947
58.8   0.243511450382
58.81   0.247328244275
58.82   0.312595419847
58.83   0.293129770992
58.84   0.293893129771
58.85   0.343511450382
58.86   0.350381679389
58.87   0.387404580153
58.88   0.391984732824
58.89   0.413740458015
58.9   0.467175572519
58.91   0.465648854962
58.92   0.443893129771
58.93   0.540076335878
58.94   0.531297709924
58.95   0.537404580153
58.96   0.582442748092
58.97   0.641984732824
58.98   0.649618320611
58.99   0.660305343511
59.0   0.725572519084
59.01   0.741603053435
59.02   0.743129770992
59.03   0.795038167939
59.04   0.813358778626
59.05   0.86679389313
59.06   0.841603053435
59.07   0.845419847328
59.08   0.942748091603
59.09   0.913358778626
59.1   0.923282442748
59.11   0.940839694656
59.12   0.940076335878
59.13   1.0
59.14   0.926717557252
59.15   0.917175572519
59.16   0.904580152672
59.17   0.872900763359
59.18   0.872519083969
59.19   0.87786259542
59.2   0.826717557252
59.21   0.806488549618
59.22   0.796564885496
59.23   0.811832061069
59.24   0.75534351145
59.25   0.743511450382
59.26   0.729389312977
59.27   0.669847328244
59.28   0.66679389313
59.29   0.666030534351
59.3   0.641984732824
59.31   0.565267175573
59.32   0.531297709924
59.33   0.550763358779
59.34   0.526717557252
59.35   0.525190839695
59.36   0.485496183206
59.37   0.430916030534
59.38   0.390076335878
59.39   0.386641221374
59.4   0.384351145038
59.41   0.349618320611
59.42   0.339694656489
59.43   0.321755725191
59.44   0.293511450382
59.45   0.267175572519
59.46   0.267175572519
59.47   0.21641221374
59.48   0.240839694656
59.49   0.243893129771
59.5   0.220610687023
59.51   0.210687022901
59.52   0.190839694656
59.53   0.182824427481
59.54   0.188167938931
59.55   0.171374045802
59.56   0.156870229008
59.57   0.168320610687
59.58   0.174427480916
59.59   0.149618320611
59.6   0.151145038168
59.61   0.146564885496
59.62   0.125190839695
59.63   0.121374045802
59.64   0.119847328244
59.65   0.114503816794
59.66   0.118320610687
59.67   0.103435114504
59.68   0.0950381679389
59.69   0.122900763359
59.7   0.0927480916031
59.71   0.124045801527
59.72   0.0858778625954
59.73   0.0904580152672
59.74   0.0980916030534
59.75   0.0965648854962
59.76   0.104198473282
59.77   0.100381679389
59.78   0.0950381679389
59.79   0.0988549618321
59.8   0.080534351145
59.81   0.080534351145
59.82   0.0912213740458
59.83   0.0725190839695
59.84   0.0797709923664
59.85   0.0786259541985
59.86   0.0793893129771
59.87   0.0618320610687
59.88   0.087786259542
59.89   0.0786259541985
59.9   0.0709923664122
59.91   0.0801526717557
59.92   0.0763358778626
59.93   0.0656488549618
59.94   0.069465648855
59.95   0.0748091603053
59.96   0.0618320610687
59.97   0.0740458015267
59.98   0.0603053435115
59.99   0.0526717557252
60.0   0.0717557251908
60.01   0.0717557251908
60.02   0.0580152671756
60.03   0.0641221374046
60.04   0.0664122137405
60.05   0.0656488549618
60.06   0.0732824427481
60.07   0.0648854961832
60.08   0.0679389312977
60.09   0.0671755725191
60.1   0.0595419847328
60.11   0.0564885496183
60.12   0.0519083969466
60.13   0.0580152671756
60.14   0.0641221374046
60.15   0.0610687022901
60.16   0.0564885496183
60.17   0.0549618320611
60.18   0.0664122137405
60.19   0.0618320610687
60.2   0.0660305343511
60.21   0.0580152671756
60.22   0.0442748091603
60.23   0.0465648854962
60.24   0.0690839694656
60.25   0.0599236641221
60.26   0.0538167938931
60.27   0.0660305343511
60.28   0.0652671755725
60.29   0.0645038167939
60.3   0.0599236641221
60.31   0.0477099236641
60.32   0.0477099236641
60.33   0.0515267175573
60.34   0.0522900763359
60.35   0.0553435114504
60.36   0.0492366412214
60.37   0.0522900763359
60.38   0.0492366412214
60.39   0.0538167938931
60.4   0.0515267175573
60.41   0.0675572519084
60.42   0.0515267175573
60.43   0.0484732824427
60.44   0.056106870229
60.45   0.0492366412214
60.46   0.0431297709924
60.47   0.0591603053435
60.48   0.0423664122137
60.49   0.0583969465649
