26.01   138.0
26.02   124.0
26.03   178.0
26.04   155.0
26.05   160.0
26.06   151.0
26.07   120.0
26.08   160.0
26.09   146.0
26.1   102.0
26.11   146.0
26.12   159.0
26.13   168.0
26.14   168.0
26.15   133.0
26.16   128.0
26.17   115.0
26.18   119.0
26.19   128.0
26.2   154.0
26.21   128.0
26.22   106.0
26.23   137.0
26.24   123.0
26.25   97.0
26.26   167.0
26.27   176.0
26.28   145.0
26.29   185.0
26.3   141.0
26.31   119.0
26.32   141.0
26.33   149.0
26.34   127.0
26.35   101.0
26.36   114.0
26.37   96.0
26.38   70.0
26.39   123.0
26.4   101.0
26.41   105.0
26.42   127.0
26.43   157.0
26.44   149.0
26.45   149.0
26.46   131.0
26.47   118.0
26.48   140.0
26.49   113.0
26.5   144.0
26.51   157.0
26.52   135.0
26.53   139.0
26.54   109.0
26.55   152.0
26.56   109.0
26.57   148.0
26.58   104.0
26.59   135.0
26.6   139.0
26.61   165.0
26.62   156.0
26.63   100.0
26.64   126.0
26.65   286.0
26.66   200.0
26.67   121.0
26.68   143.0
26.69   156.0
26.7   165.0
26.71   178.0
26.72   117.0
26.73   147.0
26.74   160.0
26.75   121.0
26.76   143.0
26.77   168.0
26.78   142.0
26.79   147.0
26.8   129.0
26.81   99.0
26.82   138.0
26.83   164.0
26.84   125.0
26.85   116.0
26.86   121.0
26.87   116.0
26.88   90.0
26.89   133.0
26.9   142.0
26.91   159.0
26.92   129.0
26.93   150.0
26.94   150.0
26.95   120.0
26.96   103.0
26.97   133.0
26.98   133.0
26.99   103.0
27.0   137.0
27.01   103.0
27.02   90.0
27.03   94.0
27.04   124.0
27.05   154.0
27.06   133.0
27.07   128.0
27.08   145.0
27.09   128.0
27.1   145.0
27.11   162.0
27.12   136.0
27.13   124.0
27.14   111.0
27.15   115.0
27.16   124.0
27.17   145.0
27.18   132.0
27.19   153.0
27.2   102.0
27.21   162.0
27.22   140.0
27.23   127.0
27.24   161.0
27.25   187.0
27.26   136.0
27.27   153.0
27.28   123.0
27.29   106.0
27.3   127.0
27.31   97.0
27.32   127.0
27.33   135.0
27.34   123.0
27.35   114.0
27.36   140.0
27.37   131.0
27.38   118.0
27.39   177.0
27.4   148.0
27.41   144.0
27.42   169.0
27.43   152.0
27.44   152.0
27.45   135.0
27.46   135.0
27.47   114.0
27.48   93.0
27.49   130.0
27.5   135.0
27.51   135.0
27.52   139.0
27.53   92.0
27.54   126.0
27.55   160.0
27.56   147.0
27.57   176.0
27.58   147.0
27.59   155.0
27.6   159.0
27.61   168.0
27.62   184.0
27.63   142.0
27.64   163.0
27.65   146.0
27.66   134.0
27.67   138.0
27.68   125.0
27.69   125.0
27.7   113.0
27.71   142.0
27.72   138.0
27.73   171.0
27.74   150.0
27.75   113.0
27.76   163.0
27.77   171.0
27.78   108.0
27.79   179.0
27.8   162.0
27.81   171.0
27.82   137.0
27.83   125.0
27.84   129.0
27.85   150.0
27.86   174.0
27.87   125.0
27.88   137.0
27.89   149.0
27.9   191.0
27.91   199.0
27.92   199.0
27.93   191.0
27.94   174.0
27.95   215.0
27.96   186.0
27.97   145.0
27.98   165.0
27.99   178.0
28.0   203.0
28.01   178.0
28.02   231.0
28.03   190.0
28.04   177.0
28.05   173.0
28.06   231.0
28.07   227.0
28.08   247.0
28.09   210.0
28.1   194.0
28.11   239.0
28.12   231.0
28.13   214.0
28.14   263.0
28.15   222.0
28.16   292.0
28.17   288.0
28.18   255.0
28.19   349.0
28.2   279.0
28.21   336.0
28.22   381.0
28.23   402.0
28.24   430.0
28.25   463.0
28.26   561.0
28.27   586.0
28.28   606.0
28.29   761.0
28.3   839.0
28.31   1006.0
28.32   981.0
28.33   1087.0
28.34   1275.0
28.35   1450.0
28.36   1486.0
28.37   1844.0
28.38   2048.0
28.39   2369.0
28.4   2943.0
28.41   3313.0
28.42   3943.0
28.43   4838.0
28.44   5443.0
28.45   6409.0
28.46   7750.0
28.47   10785.0
28.48   14907.0
28.49   21205.0
28.5   31167.0
28.51   46715.0
28.52   67744.0
28.53   99603.0
28.54   127788.0
28.55   138463.0
28.56   125889.0
28.57   96868.0
28.58   72568.0
28.59   58004.0
28.6   57579.0
28.61   65115.0
28.62   69693.0
28.63   62454.0
28.64   48072.0
28.65   31379.0
28.66   18630.0
28.67   11701.0
28.68   7490.0
28.69   5501.0
28.7   4668.0
28.71   3856.0
28.72   3411.0
28.73   3108.0
28.74   2611.0
28.75   2405.0
28.76   1929.0
28.77   1767.0
28.78   1618.0
28.79   1360.0
28.8   1275.0
28.81   1138.0
28.82   1117.0
28.83   900.0
28.84   867.0
28.85   727.0
28.86   706.0
28.87   626.0
28.88   577.0
28.89   465.0
28.9   477.0
28.91   521.0
28.92   408.0
28.93   344.0
28.94   372.0
28.95   328.0
28.96   336.0
28.97   300.0
28.98   412.0
28.99   312.0
29.0   268.0
29.01   232.0
29.02   311.0
29.03   271.0
29.04   263.0
29.05   251.0
29.06   251.0
29.07   243.0
29.08   251.0
29.09   223.0
29.1   255.0
29.11   231.0
29.12   171.0
29.13   215.0
29.14   199.0
29.15   230.0
29.16   238.0
29.17   218.0
29.18   202.0
29.19   155.0
29.2   167.0
29.21   178.0
29.22   214.0
29.23   190.0
29.24   210.0
29.25   202.0
29.26   170.0
29.27   150.0
29.28   150.0
29.29   158.0
29.3   170.0
29.31   130.0
29.32   103.0
29.33   174.0
29.34   154.0
29.35   166.0
29.36   170.0
29.37   142.0
29.38   130.0
29.39   177.0
29.4   122.0
29.41   181.0
29.42   114.0
29.43   134.0
29.44   146.0
29.45   122.0
29.46   142.0
29.47   149.0
29.48   130.0
29.49   169.0
29.5   177.0
29.51   153.0
29.52   137.0
29.53   145.0
29.54   110.0
29.55   129.0
29.56   141.0
29.57   106.0
29.58   125.0
29.59   129.0
29.6   117.0
29.61   121.0
29.62   137.0
29.63   149.0
29.64   141.0
29.65   176.0
29.66   195.0
29.67   141.0
29.68   211.0
29.69   137.0
29.7   121.0
29.71   125.0
29.72   133.0
29.73   86.0
29.74   136.0
29.75   113.0
29.76   125.0
29.77   156.0
29.78   93.0
29.79   97.0
29.8   89.0
29.81   89.0
29.82   109.0
29.83   117.0
29.84   117.0
29.85   132.0
29.86   116.0
29.87   175.0
29.88   163.0
29.89   136.0
29.9   124.0
29.91   174.0
29.92   136.0
29.93   124.0
29.94   105.0
29.95   155.0
29.96   93.0
29.97   139.0
29.98   131.0
29.99   108.0
30.0   151.0
30.01   124.0
30.02   147.0
30.03   96.0
30.04   123.0
30.05   131.0
30.06   112.0
30.07   146.0
30.08   143.0
30.09   119.0
30.1   100.0
30.11   115.0
30.12   104.0
30.13   127.0
30.14   158.0
30.15   138.0
30.16   123.0
30.17   123.0
30.18   154.0
30.19   146.0
30.2   123.0
30.21   100.0
30.22   69.0
30.23   92.0
30.24   111.0
30.25   123.0
30.26   149.0
30.27   134.0
30.28   96.0
30.29   111.0
30.3   119.0
30.31   99.0
30.32   119.0
30.33   126.0
30.34   134.0
30.35   92.0
30.36   111.0
30.37   65.0
30.38   80.0
30.39   118.0
30.4   103.0
30.41   126.0
30.42   111.0
30.43   88.0
30.44   103.0
30.45   133.0
30.46   114.0
30.47   91.0
30.48   110.0
30.49   114.0
30.5   80.0
30.51   133.0
30.52   99.0
30.53   91.0
30.54   171.0
30.55   102.0
30.56   159.0
30.57   121.0
30.58   95.0
30.59   110.0
30.6   106.0
30.61   117.0
30.62   121.0
30.63   110.0
30.64   91.0
30.65   129.0
30.66   76.0
30.67   144.0
30.68   140.0
30.69   106.0
30.7   106.0
30.71   136.0
30.72   132.0
30.73   143.0
30.74   102.0
30.75   121.0
30.76   113.0
30.77   113.0
30.78   143.0
30.79   147.0
30.8   124.0
30.81   87.0
30.82   117.0
30.83   98.0
30.84   117.0
30.85   117.0
30.86   117.0
30.87   75.0
30.88   101.0
30.89   131.0
30.9   161.0
30.91   139.0
30.92   101.0
30.93   135.0
30.94   90.0
30.95   176.0
30.96   90.0
30.97   116.0
30.98   105.0
30.99   124.0
31.0   135.0
