26.01   0.00906701708279
26.02   0.00716162943495
26.03   0.00788436268068
26.04   0.00831143232589
26.05   0.00890275952694
26.06   0.00597897503285
26.07   0.00683311432326
26.08   0.00755584756899
26.09   0.00712877792378
26.1   0.00916557161629
26.11   0.00653745072273
26.12   0.00624178712221
26.13   0.00870565045992
26.14   0.00814717477004
26.15   0.00696452036794
26.16   0.00712877792378
26.17   0.0084099868594
26.18   0.0084099868594
26.19   0.00637319316689
26.2   0.00768725361367
26.21   0.00666885676741
26.22   0.00739159001314
26.23   0.00854139290407
26.24   0.00739159001314
26.25   0.00722733245729
26.26   0.00854139290407
26.27   0.00709592641261
26.28   0.00896846254928
26.29   0.00778580814717
26.3   0.00722733245729
26.31   0.00837713534823
26.32   0.00995400788436
26.33   0.00693166885677
26.34   0.00936268068331
26.35   0.0076544021025
26.36   0.00749014454665
26.37   0.00706307490145
26.38   0.00762155059133
26.39   0.00834428383706
26.4   0.00775295663601
26.41   0.00978975032852
26.42   0.00775295663601
26.43   0.00877135348226
26.44   0.00762155059133
26.45   0.00719448094612
26.46   0.00831143232589
26.47   0.00903416557162
26.48   0.00890275952694
26.49   0.00975689881735
26.5   0.00946123521682
26.51   0.00818002628121
26.52   0.00860709592641
26.53   0.00831143232589
26.54   0.00844283837057
26.55   0.00844283837057
26.56   0.00801576872536
26.57   0.00827858081472
26.58   0.0104467805519
26.59   0.00972404730618
26.6   0.00798291721419
26.61   0.00785151116951
26.62   0.00998685939553
26.63   0.0108409986859
26.64   0.00998685939553
26.65   0.00768725361367
26.66   0.00955978975033
26.67   0.00896846254928
26.68   0.00909986859396
26.69   0.01123521682
26.7   0.00896846254928
26.71   0.00752299605782
26.72   0.0102496714849
26.73   0.00768725361367
26.74   0.0106438896189
26.75   0.010085413929
26.76   0.0085085413929
26.77   0.010085413929
26.78   0.00880420499343
26.79   0.0126149802891
26.8   0.0112023653088
26.81   0.00906701708279
26.82   0.00877135348226
26.83   0.00893561103811
26.84   0.0111695137976
26.85   0.00847568988173
26.86   0.00863994743758
26.87   0.00932982917214
26.88   0.0145532194481
26.89   0.0101839684625
26.9   0.0108738501971
26.91   0.0110052562418
26.92   0.0108738501971
26.93   0.0118593955322
26.94   0.011432325887
26.95   0.0100197109067
26.96   0.0121222076216
26.97   0.0123850197109
26.98   0.0116951379763
26.99   0.0113994743758
27.0   0.0116951379763
27.01   0.0123850197109
27.02   0.0128120893561
27.03   0.0119579500657
27.04   0.0113666228647
27.05   0.0117936925099
27.06   0.0116622864652
27.07   0.0123521681997
27.08   0.0114980289093
27.09   0.0119250985545
27.1   0.0126149802891
27.11   0.013173455979
27.12   0.0112023653088
27.13   0.0110709592641
27.14   0.0137319316689
27.15   0.0133048620237
27.16   0.0148160315375
27.17   0.0148160315375
27.18   0.0136990801577
27.19   0.0145203679369
27.2   0.0124178712221
27.21   0.0143889618922
27.22   0.0149474375821
27.23   0.012976346912
27.24   0.0156373193167
27.25   0.0124178712221
27.26   0.0154730617608
27.27   0.0161629434954
27.28   0.0142247043364
27.29   0.0129434954008
27.3   0.015308804205
27.31   0.0146189224704
27.32   0.0159986859396
27.33   0.015703022339
27.34   0.0141918528252
27.35   0.0147174770039
27.36   0.0134691195795
27.37   0.0136005256242
27.38   0.0156701708279
27.39   0.0133048620237
27.4   0.0158015768725
27.41   0.0167871222076
27.42   0.0152431011827
27.43   0.0167542706965
27.44   0.0146846254928
27.45   0.0164914586071
27.46   0.0171484888305
27.47   0.0195137976347
27.48   0.017838370565
27.49   0.0150788436268
27.5   0.0165900131406
27.51   0.0150459921156
27.52   0.01685282523
27.53   0.0167214191853
27.54   0.0178055190539
27.55   0.0219448094612
27.56   0.0193166885677
27.57   0.0181997371879
27.58   0.0197109067017
27.59   0.0204007884363
27.6   0.0195466491459
27.61   0.0216162943495
27.62   0.0233902759527
27.63   0.0224375821288
27.64   0.0211892247043
27.65   0.0239159001314
27.66   0.01938239159
27.67   0.0204664914586
27.68   0.0211563731932
27.69   0.0234888304862
27.7   0.0252628120894
27.71   0.0242772667543
27.72   0.026741130092
27.73   0.0228975032852
27.74   0.0220762155059
27.75   0.0260183968463
27.76   0.0257555847569
27.77   0.0258869908016
27.78   0.0213534822602
27.79   0.0296977660972
27.8   0.0258541392904
27.81   0.026938239159
27.82   0.0301905387648
27.83   0.0269053876478
27.84   0.0296320630749
27.85   0.0328843626807
27.86   0.0294678055191
27.87   0.03314717477
27.88   0.0332785808147
27.89   0.0340670170828
27.9   0.0336727989488
27.91   0.0356767411301
27.92   0.0340341655716
27.93   0.0348554533509
27.94   0.037023653088
27.95   0.0382391590013
27.96   0.0386333771353
27.97   0.0426741130092
27.98   0.0454007884363
27.99   0.0419842312746
28.0   0.0457621550591
28.01   0.0475032851511
28.02   0.0504927726675
28.03   0.0505913272011
28.04   0.0485545335085
28.05   0.0524638633377
28.06   0.0531208935611
28.07   0.0535151116951
28.08   0.0564717477004
28.09   0.0560446780552
28.1   0.0637319316689
28.11   0.0677726675427
28.12   0.0730289093298
28.13   0.0742115637319
28.14   0.0710906701708
28.15   0.0848226018397
28.16   0.0873850197109
28.17   0.0904402102497
28.18   0.0916228646518
28.19   0.103055190539
28.2   0.106110381078
28.21   0.114454664915
28.22   0.121024967148
28.23   0.119743758213
28.24   0.138436268068
28.25   0.146320630749
28.26   0.152201051248
28.27   0.172043363995
28.28   0.18005913272
28.29   0.199770039422
28.3   0.205190538765
28.31   0.234691195795
28.32   0.237023653088
28.33   0.264586070959
28.34   0.274967148489
28.35   0.306537450723
28.36   0.331636005256
28.37   0.340374507227
28.38   0.390637319317
28.39   0.41208935611
28.4   0.444086727989
28.41   0.473915900131
28.42   0.515900131406
28.43   0.566819973719
28.44   0.592049934297
28.45   0.639980289093
28.46   0.669152431012
28.47   0.726511169514
28.48   0.762319316689
28.49   0.786465177398
28.5   0.824638633377
28.51   0.874375821288
28.52   0.886892247043
28.53   0.922996057819
28.54   0.956931668857
28.55   0.95926412615
28.56   0.995696452037
28.57   1.0
28.58   0.998061760841
28.59   0.999704336399
28.6   0.968922470434
28.61   0.977102496715
28.62   0.93820630749
28.63   0.934691195795
28.64   0.894283837057
28.65   0.883081471748
28.66   0.834329829172
28.67   0.797306176084
28.68   0.765045992116
28.69   0.712023653088
28.7   0.674671484888
28.71   0.637483574244
28.72   0.59326544021
28.73   0.561957950066
28.74   0.502069645204
28.75   0.489848883049
28.76   0.466688567674
28.77   0.412023653088
28.78   0.385315374507
28.79   0.357982917214
28.8   0.330519053876
28.81   0.296714848883
28.82   0.289487516426
28.83   0.26629434954
28.84   0.241688567674
28.85   0.223784494087
28.86   0.216590013141
28.87   0.19635348226
28.88   0.174408672799
28.89   0.161859395532
28.9   0.162450722733
28.91   0.139750328515
28.92   0.130519053876
28.93   0.126511169514
28.94   0.116885676741
28.95   0.114356110381
28.96   0.102858081472
28.97   0.0944480946124
28.98   0.0867936925099
28.99   0.0853153745072
29.0   0.0908015768725
29.01   0.0760840998686
29.02   0.0757884362681
29.03   0.0748357424442
29.04   0.0664257555848
29.05   0.0645860709593
29.06   0.0606110381078
29.07   0.0548620236531
29.08   0.0558804204993
29.09   0.0529894875164
29.1   0.0561103810775
29.11   0.0547634691196
29.12   0.0525295663601
29.13   0.0479303547963
29.14   0.0472733245729
29.15   0.0464848883049
29.16   0.0464520367937
29.17   0.0448751642576
29.18   0.0389947437582
29.19   0.0361038107753
29.2   0.0359724047306
29.21   0.0371222076216
29.22   0.0380420499343
29.23   0.034494086728
29.24   0.0294021024967
29.25   0.0355124835742
29.26   0.0310775295664
29.27   0.0279566360053
29.28   0.030814717477
29.29   0.034296977661
29.3   0.0320959264126
29.31   0.0295992115637
29.32   0.0272667542707
29.33   0.0266097240473
29.34   0.0268396846255
29.35   0.0255584756899
29.36   0.0256570302234
29.37   0.024605781866
29.38   0.0224047306176
29.39   0.0260183968463
29.4   0.0257555847569
29.41   0.0196780551905
29.42   0.0247043363995
29.43   0.0231603153745
29.44   0.0230289093298
29.45   0.0266097240473
29.46   0.017444152431
29.47   0.0226018396846
29.48   0.0204007884363
29.49   0.0196123521682
29.5   0.0201379763469
29.51   0.0200065703022
29.52   0.0189553219448
29.53   0.019579500657
29.54   0.0208607095926
29.55   0.0190538764783
29.56   0.0168856767411
29.57   0.0169842312746
29.58   0.0193166885677
29.59   0.0175098554534
29.6   0.0173455978975
29.61   0.01685282523
29.62   0.0159329829172
29.63   0.0172141918528
29.64   0.0152759526938
29.65   0.0168199737188
29.66   0.012976346912
29.67   0.0147503285151
29.68   0.0161629434954
29.69   0.015900131406
29.7   0.0133377135348
29.71   0.0144875164258
29.72   0.0159986859396
29.73   0.0157358738502
29.74   0.0153745072273
29.75   0.0144546649146
29.76   0.0154730617608
29.77   0.013173455979
29.78   0.0139290407359
29.79   0.0152102496715
29.8   0.0155716162943
29.81   0.0117608409987
29.82   0.0154402102497
29.83   0.0135348226018
29.84   0.0142904073587
29.85   0.0114651773982
29.86   0.0113337713535
29.87   0.0115965834428
29.88   0.0110709592641
29.89   0.0127463863338
29.9   0.0119579500657
29.91   0.0120893561104
29.92   0.0141261498029
29.93   0.00916557161629
29.94   0.0125821287779
29.95   0.0131077529566
29.96   0.0106767411301
29.97   0.0106767411301
29.98   0.0108081471748
29.99   0.00988830486202
30.0   0.0101511169514
30.01   0.00975689881735
30.02   0.0116622864652
30.03   0.0128120893561
30.04   0.0116622864652
30.05   0.0100197109067
30.06   0.00923127463863
30.07   0.0106438896189
30.08   0.00975689881735
30.09   0.00909986859396
30.1   0.0108738501971
30.11   0.0102496714849
30.12   0.0101182654402
30.13   0.0095926412615
30.14   0.00972404730618
30.15   0.0101182654402
30.16   0.0103482260184
30.17   0.0114980289093
30.18   0.0106110381078
30.19   0.0104796320631
30.2   0.010085413929
30.21   0.00768725361367
30.22   0.00919842312746
30.23   0.00906701708279
30.24   0.0103153745072
30.25   0.010085413929
30.26   0.00893561103811
30.27   0.00919842312746
30.28   0.00982260183968
30.29   0.00929697766097
30.3   0.00942838370565
30.31   0.00916557161629
30.32   0.00942838370565
30.33   0.00867279894875
30.34   0.00929697766097
30.35   0.00942838370565
30.36   0.00929697766097
30.37   0.0084099868594
30.38   0.00716162943495
30.39   0.00739159001314
30.4   0.00827858081472
30.41   0.00913272010512
30.42   0.00814717477004
30.43   0.00877135348226
30.44   0.00988830486202
30.45   0.00837713534823
30.46   0.00676741130092
30.47   0.00837713534823
30.48   0.0092641261498
30.49   0.00998685939553
30.5   0.00900131406045
30.51   0.00785151116951
30.52   0.00936268068331
30.53   0.00673455978975
30.54   0.00847568988173
30.55   0.00798291721419
30.56   0.00758869908016
30.57   0.0105781865966
30.58   0.00821287779238
30.59   0.00683311432326
30.6   0.00870565045992
30.61   0.00785151116951
30.62   0.00870565045992
30.63   0.00982260183968
30.64   0.00745729303548
30.65   0.00772010512484
30.66   0.00709592641261
30.67   0.0073258869908
30.68   0.0073258869908
30.69   0.0073258869908
30.7   0.00768725361367
30.71   0.00844283837057
30.72   0.00867279894875
30.73   0.00768725361367
30.74   0.00844283837057
30.75   0.00755584756899
30.76   0.00742444152431
30.77   0.00818002628121
30.78   0.0084099868594
30.79   0.00791721419185
30.8   0.00818002628121
30.81   0.00804862023653
30.82   0.00939553219448
30.83   0.00752299605782
30.84   0.00742444152431
30.85   0.00680026281209
30.86   0.00729303547963
30.87   0.00716162943495
30.88   0.00814717477004
30.89   0.00703022339028
30.9   0.00886990801577
30.91   0.0085085413929
30.92   0.00801576872536
30.93   0.0085085413929
30.94   0.00860709592641
30.95   0.00752299605782
30.96   0.00972404730618
30.97   0.00798291721419
30.98   0.00775295663601
30.99   0.00788436268068
