28.51   0.00177619893428
28.52   0.00341576718131
28.53   0.00259598305779
28.54   0.00232272168329
28.55   0.00218609099604
28.56   0.00300587511955
28.57   0.00204946030879
28.58   0.00327913649406
28.59   0.0031425058068
28.6   0.0031425058068
28.61   0.0031425058068
28.62   0.00368902855581
28.63   0.00232272168329
28.64   0.00191282962153
28.65   0.00368902855581
28.66   0.00150293755978
28.67   0.00177619893428
28.68   0.00245935237054
28.69   0.00300587511955
28.7   0.00368902855581
28.71   0.00341576718131
28.72   0.00232272168329
28.73   0.00300587511955
28.74   0.00464544336658
28.75   0.00519196611559
28.76   0.00464544336658
28.77   0.00273261374505
28.78   0.0028692444323
28.79   0.00341576718131
28.8   0.00505533542834
28.81   0.00478207405383
28.82   0.00423555130482
28.83   0.00546522749009
28.84   0.00560185817735
28.85   0.00710479573712
28.86   0.00778794917338
28.87   0.00765131848613
28.88   0.00751468779888
28.89   0.00765131848613
28.9   0.00847110260965
28.91   0.00792457986064
28.92   0.0107938242929
28.93   0.00806121054789
28.94   0.00983740948217
28.95   0.00778794917338
28.96   0.0117502391037
28.97   0.0106571936057
28.98   0.016259051783
28.99   0.0163956824703
29.0   0.017352097281
29.01   0.0183085120918
29.02   0.0218609099604
29.03   0.0271895067632
29.04   0.0262330919525
29.05   0.0326547342533
29.06   0.0355239786856
29.07   0.0419456209865
29.08   0.0510998770324
29.09   0.0644896843831
29.1   0.0812952589152
29.11   0.110260964613
29.12   0.153846153846
29.13   0.232545429704
29.14   0.341030195382
29.15   0.478480666758
29.16   0.631233775106
29.17   0.803251810357
29.18   0.931411394999
29.19   1.0
29.2   0.956278180079
29.21   0.895340893565
29.22   0.732887006422
29.23   0.551578084438
29.24   0.372591884137
29.25   0.223391173658
29.26   0.134854488318
29.27   0.0770597076103
29.28   0.0352507173111
29.29   0.0163956824703
29.3   0.00464544336658
29.31   0.00177619893428
29.32   0.0103839322312
29.33   0.0180352507173
29.34   0.0199480803388
29.35   0.0304686432573
29.36   0.0341576718131
29.37   0.0385298538052
29.38   0.0378467003689
29.39   0.0364803934964
29.4   0.0250034157672
29.41   0.0142095914742
29.42   0.00751468779888
29.43   0.00983740948217
29.44   0.00765131848613
29.45   0.00341576718131
29.46   -0.000683153436262
29.47   0.00409892061757
29.48   0.00970077879492
29.49   0.0121601311655
29.5   0.0113403470419
29.51   0.00956414810766
29.52   0.00915425604591
29.53   0.0125700232272
29.54   0.0088809946714
29.55   0.00710479573712
29.56   0.0060117502391
29.57   0.00368902855581
29.58   0.00191282962153
29.59   0.00273261374505
29.6   0.00109304549802
29.61   0.00150293755978
29.62   0.00423555130482
29.63   0.00259598305779
29.64   0.00478207405383
29.65   0.00546522749009
29.66   0.00655827298811
29.67   0.00464544336658
29.68   0.00532859680284
29.69   0.00341576718131
29.7   0.00341576718131
29.71   0.00341576718131
29.72   0.00163956824703
29.73   0.000956414810766
29.74   0.000546522749009
29.75   0.00191282962153
29.76   0.00245935237054
29.77   0.00300587511955
