27.02   0.00430390865173
27.04   0.0040404040404
27.06   0.0048309178744
27.08   0.00263504611331
27.1   0.0020202020202
27.12   0.00245937637242
27.14   0.00316205533597
27.16   0.00395256916996
27.18   0.00360122968819
27.2   0.00421607378129
27.22   0.00324989020641
27.24   0.00351339481774
27.26   0.00324989020641
27.28   0.00368906455863
27.3   0.00456741326307
27.32   0.00421607378129
27.34   0.00465524813351
27.36   0.00456741326307
27.38   0.00553359683794
27.4   0.0040404040404
27.42   0.00456741326307
27.44   0.00272288098375
27.46   0.00324989020641
27.48   0.00614844093105
27.5   0.00737812911726
27.52   0.00729029424682
27.54   0.00465524813351
27.56   0.00535792709706
27.58   0.00447957839262
27.6   0.00614844093105
27.62   0.00667545015371
27.64   0.00667545015371
27.66   0.00702678963549
27.68   0.0074659639877
27.7   0.00474308300395
27.72   0.00948616600791
27.74   0.0074659639877
27.76   0.00869565217391
27.78   0.0117698726394
27.8   0.00939833113746
27.82   0.00922266139657
27.84   0.00939833113746
27.86   0.0111550285463
27.88   0.0122090469917
27.9   0.0112428634168
27.92   0.0122968818621
27.94   0.0134387351779
27.96   0.0161616161616
27.98   0.0149319279754
28.0   0.0165129556434
28.02   0.0207290294247
28.04   0.0200263504611
28.06   0.0255599472991
28.08   0.0260869565217
28.1   0.0304787000439
28.12   0.0349582784365
28.14   0.0431269213878
28.16   0.0556873078612
28.18   0.0684233640755
28.2   0.090294246816
28.22   0.128414580588
28.24   0.174000878349
28.26   0.259025032938
28.28   0.378656126482
28.3   0.541326306544
28.32   0.744927536232
28.34   0.91682037769
28.36   1.0
28.38   0.994642072903
28.4   0.837856829161
28.42   0.652349582784
28.44   0.491260430391
28.46   0.346069389548
28.48   0.267720685112
28.5   0.216952129996
28.52   0.169169960474
28.54   0.149143610013
28.56   0.129292929293
28.58   0.118664909969
28.6   0.098814229249
28.62   0.0797540623628
28.64   0.0704435660957
28.66   0.0539306104523
28.68   0.0509442248573
28.7   0.0437417654809
28.72   0.0386473429952
28.74   0.0389108476065
28.76   0.0311813790075
28.78   0.0271409749671
28.8   0.0252086078173
28.82   0.0216952129996
28.84   0.020202020202
28.86   0.020992534036
28.88   0.0187966622749
28.9   0.0181818181818
28.92   0.0159859464207
28.94   0.0136144049188
28.96   0.014844093105
28.98   0.00939833113746
29.0   0.0118577075099
29.02   0.0128238910848
29.04   0.0113306982872
29.06   0.0112428634168
29.08   0.00729029424682
29.1   0.00913482652613
29.12   0.00623627580149
29.14   0.00764163372859
29.16   0.00658761528327
29.18   0.00764163372859
29.2   0.00720245937637
29.22   0.00781730346948
29.24   0.00843214756258
29.26   0.00465524813351
29.28   0.00500658761528
29.3   0.00535792709706
29.32   0.0054457619675
29.34   0.00649978041282
29.36   0.00307422046552
29.38   0.00430390865173
29.4   0.00474308300395
29.42   0.00579710144928
29.44   0.00456741326307
29.46   0.00421607378129
29.48   0.0034255599473
29.5   0.00421607378129
29.52   0.00439174352218
29.54   0.00272288098375
29.56   0.00377689942907
29.58   0.00377689942907
29.6   0.0034255599473
29.62   0.00447957839262
29.64   0.00351339481774
29.66   0.00316205533597
29.68   0.0034255599473
29.7   0.00316205533597
29.72   0.00324989020641
29.74   0.00333772507686
29.76   0.0020202020202
29.78   0.00439174352218
29.8   0.00368906455863
29.82   0.00298638559508
29.84   0.00254721124286
29.86   0.00193236714976
29.88   0.00210803689065
29.9   0.00351339481774
29.92   0.00289855072464
29.94   0.0040404040404
29.96   0.00377689942907
29.98   0.00368906455863
