58.01   0.0087002372792
58.02   0.0101063362334
58.03   0.00615168292469
58.04   0.00764566306354
58.05   0.00834871254065
58.06   0.00685473240179
58.07   0.00703049477107
58.08   0.00975481149486
58.09   0.00905176201775
58.1   0.0108972668952
58.11   0.00905176201775
58.12   0.00782142543281
58.13   0.00905176201775
58.14   0.00922752438703
58.15   0.00799718780209
58.16   0.00580015818613
58.17   0.00852447490992
58.18   0.00562439581686
58.19   0.00957904912558
58.2   0.00905176201775
58.21   0.0102820986027
58.22   0.00703049477107
58.23   0.0075577818789
58.24   0.00562439581686
58.25   0.00790930661745
58.26   0.00667897003252
58.27   0.00922752438703
58.28   0.00703049477107
58.29   0.00720625714035
58.3   0.00808506898673
58.31   0.00843659372528
58.32   0.0075577818789
58.33   0.0075577818789
58.34   0.00615168292469
58.35   0.00993057386414
58.36   0.00703049477107
58.37   0.00773354424818
58.38   0.00861235609456
58.39   0.00940328675631
58.4   0.00667897003252
58.41   0.00843659372528
58.42   0.00940328675631
58.43   0.00703049477107
58.44   0.00826083135601
58.45   0.00896388083311
58.46   0.00826083135601
58.47   0.00738201950962
58.48   0.00790930661745
58.49   0.00878811846384
58.5   0.00975481149486
58.51   0.00913964320239
58.52   0.00773354424818
58.53   0.00949116794094
58.54   0.00896388083311
58.55   0.0102820986027
58.56   0.00703049477107
58.57   0.0115124351876
58.58   0.0098426926795
58.59   0.00843659372528
58.6   0.0100184550488
58.61   0.00808506898673
58.62   0.0116881975569
58.63   0.00966693031022
58.64   0.00949116794094
58.65   0.0137973459882
58.66   0.0098426926795
58.67   0.00843659372528
58.68   0.0120397222955
58.69   0.0118639599262
58.7   0.00826083135601
58.71   0.0115124351876
58.72   0.0152034449424
58.73   0.0120397222955
58.74   0.0132700588804
58.75   0.0174004745584
58.76   0.0162580191581
58.77   0.0195096229897
58.78   0.0182792864048
58.79   0.0184550487741
58.8   0.0274189296072
58.81   0.0200369100975
58.82   0.0200369100975
58.83   0.0281219790843
58.84   0.0200369100975
58.85   0.0203884348361
58.86   0.0195096229897
58.87   0.0230248703753
58.88   0.0214430090518
58.89   0.0236400386677
58.9   0.0252218999912
58.91   0.0276825731611
58.92   0.025749187099
58.93   0.028912909746
58.94   0.0362949292556
58.95   0.0314614641005
58.96   0.036207048071
58.97   0.0469285525969
58.98   0.0544863344758
58.99   0.0630108093857
59.0   0.0688988487565
59.01   0.103524035504
59.02   0.135249143158
59.03   0.183935319448
59.04   0.281834959135
59.05   0.41321733017
59.06   0.612268213376
59.07   0.823446700062
59.08   0.947534932771
59.09   1.0
59.1   0.805782581949
59.11   0.614641005361
59.12   0.432902715529
59.13   0.24896739608
59.14   0.181474646278
59.15   0.141752350822
59.16   0.111609104491
59.17   0.102205817734
59.18   0.104139203796
59.19   0.12883381668
59.2   0.168468230952
59.21   0.217769575534
59.22   0.304156780033
59.23   0.3827225591
59.24   0.45926707092
59.25   0.436769487653
59.26   0.405659548291
59.27   0.331136303717
59.28   0.225327357413
59.29   0.154758766148
59.3   0.106775639336
59.31   0.0715352842956
59.32   0.0591440372616
59.33   0.0429738992882
59.34   0.0390192459794
59.35   0.0308462958081
59.36   0.0296159592231
59.37   0.0273310484225
59.38   0.0243430881448
59.39   0.0198611477283
59.4   0.0235521574831
59.41   0.0217945337903
59.42   0.0200369100975
59.43   0.0156428508656
59.44   0.0172247121891
59.45   0.0193338606204
59.46   0.016521662712
59.47   0.0157307320503
59.48   0.0143246330961
59.49   0.0139731083575
59.5   0.0130942965111
59.51   0.0145003954653
59.52   0.0101063362334
59.53   0.0137973459882
59.54   0.00975481149486
59.55   0.0109851480798
59.56   0.0109851480798
59.57   0.00957904912558
59.58   0.0102820986027
59.59   0.0101063362334
59.6   0.010457860972
59.61   0.00957904912558
59.62   0.00940328675631
59.63   0.00922752438703
59.64   0.0113366728183
59.65   0.00905176201775
59.66   0.0087002372792
59.67   0.0102820986027
59.68   0.00843659372528
59.69   0.00931540557167
59.7   0.00720625714035
59.71   0.00790930661745
59.72   0.00966693031022
59.73   0.0075577818789
59.74   0.00790930661745
59.75   0.00861235609456
59.76   0.00878811846384
59.77   0.0107215045259
59.78   0.0103699797873
59.79   0.00913964320239
59.8   0.00685473240179
59.81   0.00580015818613
59.82   0.00966693031022
59.83   0.00966693031022
59.84   0.00667897003252
59.85   0.00861235609456
59.86   0.00861235609456
59.87   0.00826083135601
59.88   0.00667897003252
59.89   0.00703049477107
59.9   0.00966693031022
59.91   0.0103699797873
59.92   0.011424554003
59.93   0.0075577818789
59.94   0.00808506898673
59.95   0.00667897003252
59.96   0.0075577818789
59.97   0.00808506898673
59.98   0.0075577818789
59.99   0.00632744529396
60.0   0.00685473240179
60.01   0.00861235609456
60.02   0.00808506898673
60.03   0.00861235609456
60.04   0.00790930661745
60.05   0.00650320766324
60.06   0.00720625714035
60.07   0.0052728710783
60.08   0.0075577818789
60.09   0.0075577818789
60.1   0.00843659372528
60.11   0.00667897003252
60.12   0.00597592055541
60.13   0.0075577818789
60.14   0.00650320766324
60.15   0.00861235609456
60.16   0.00878811846384
60.17   0.00474558397047
60.18   0.00667897003252
60.19   0.00738201950962
60.2   0.00738201950962
60.21   0.00703049477107
60.22   0.00685473240179
60.23   0.00632744529396
60.24   0.00878811846384
60.25   0.00562439581686
60.26   0.00738201950962
60.27   0.00615168292469
60.28   0.00720625714035
60.29   0.00562439581686
60.3   0.00597592055541
60.31   0.00703049477107
60.32   0.00685473240179
60.33   0.00738201950962
60.34   0.00562439581686
60.35   0.00685473240179
60.36   0.00738201950962
60.37   0.00834871254065
60.38   0.00817295017137
60.39   0.00650320766324
60.4   0.00703049477107
60.41   0.00711837595571
60.42   0.00632744529396
60.43   0.00940328675631
60.44   0.00746990069426
60.45   0.00615168292469
60.46   0.00746990069426
60.47   0.00729413832498
60.48   0.0064153264786
60.49   0.00580015818613
