/////////////////////////////////////////////////////////////////////////////////
/// Profile Data Ascii Dump (XRD)                                             ///
/////////////////////////////////////////////////////////////////////////////////

  Group     : Stress3
  Data      : Po_PB_7,5_6
  File Name : Po_PB_7,5_6.RAW

# Data      [ Total No. = 101 ]
  <2Theta>   <   I   >
   152.0000      4122
   152.1000      4394
   152.2000      4314
   152.3000      4226
   152.4000      4278
   152.5000      4320
   152.6000      4316
   152.7000      4440
   152.8000      4448
   152.9000      4508
   153.0000      4546
   153.1000      4620
   153.2000      4738
   153.3000      4806
   153.4000      4822
   153.5000      4854
   153.6000      5042
   153.7000      5120
   153.8000      5174
   153.9000      5306
   154.0000      5490
   154.1000      5540
   154.2000      5712
   154.3000      5880
   154.4000      6124
   154.5000      6300
   154.6000      6478
   154.7000      6672
   154.8000      6966
   154.9000      7050
   155.0000      7344
   155.1000      7508
   155.2000      7942
   155.3000      7974
   155.4000      8090
   155.5000      8394
   155.6000      8476
   155.7000      8792
   155.8000      8812
   155.9000      9046
   156.0000      9236
   156.1000      9404
   156.2000      9194
   156.3000      9346
   156.4000      9034
   156.5000      9108
   156.6000      9054
   156.7000      9022
   156.8000      8802
   156.9000      8614
   157.0000      8490
   157.1000      8206
   157.2000      7952
   157.3000      7710
   157.4000      7712
   157.5000      7404
   157.6000      7384
   157.7000      7238
   157.8000      6782
   157.9000      6858
   158.0000      6480
   158.1000      6330
   158.2000      6126
   158.3000      5918
   158.4000      5854
   158.5000      5674
   158.6000      5642
   158.7000      5542
   158.8000      5506
   158.9000      5314
   159.0000      5274
   159.1000      5198
   159.2000      5072
   159.3000      5088
   159.4000      4898
   159.5000      4844
   159.6000      4766
   159.7000      4722
   159.8000      4660
   159.9000      4636
   160.0000      4612
   160.1000      4644
   160.2000      4606
   160.3000      4448
   160.4000      4458
   160.5000      4566
   160.6000      4568
   160.7000      4592
   160.8000      4390
   160.9000      4370
   161.0000      4348
   161.1000      4428
   161.2000      4258
   161.3000      4306
   161.4000      4400
   161.5000      4410
   161.6000      4334
   161.7000      4320
   161.8000      4276
   161.9000      4292
   162.0000      4274
