/////////////////////////////////////////////////////////////////////////////////
/// Profile Data Ascii Dump (XRD)                                             ///
/////////////////////////////////////////////////////////////////////////////////

  Group     : Stress3
  Data      : Po_PB_7_10
  File Name : Po_PB_7_10.RAW

# Data      [ Total No. = 101 ]
  <2Theta>   <   I   >
   152.0000      4400
   152.1000      4446
   152.2000      4634
   152.3000      4510
   152.4000      4526
   152.5000      4562
   152.6000      4720
   152.7000      4566
   152.8000      4604
   152.9000      4722
   153.0000      4774
   153.1000      4666
   153.2000      5044
   153.3000      4802
   153.4000      5108
   153.5000      5156
   153.6000      5256
   153.7000      5196
   153.8000      5380
   153.9000      5448
   154.0000      5558
   154.1000      5742
   154.2000      5900
   154.3000      6162
   154.4000      6240
   154.5000      6542
   154.6000      6692
   154.7000      7018
   154.8000      7028
   154.9000      7376
   155.0000      7634
   155.1000      7956
   155.2000      8102
   155.3000      8222
   155.4000      8400
   155.5000      8864
   155.6000      9050
   155.7000      9454
   155.8000      9250
   155.9000      9558
   156.0000      9664
   156.1000      9804
   156.2000      9678
   156.3000      9666
   156.4000      9664
   156.5000      9434
   156.6000      9482
   156.7000      9044
   156.8000      9144
   156.9000      9036
   157.0000      8912
   157.1000      8570
   157.2000      8514
   157.3000      8162
   157.4000      8202
   157.5000      8030
   157.6000      7522
   157.7000      7374
   157.8000      7222
   157.9000      6914
   158.0000      6704
   158.1000      6502
   158.2000      6374
   158.3000      6326
   158.4000      6136
   158.5000      6022
   158.6000      5892
   158.7000      5708
   158.8000      5652
   158.9000      5538
   159.0000      5428
   159.1000      5374
   159.2000      5338
   159.3000      5234
   159.4000      5226
   159.5000      5056
   159.6000      5044
   159.7000      4930
   159.8000      4884
   159.9000      4882
   160.0000      4644
   160.1000      4790
   160.2000      4764
   160.3000      4738
   160.4000      4686
   160.5000      4700
   160.6000      4776
   160.7000      4676
   160.8000      4588
   160.9000      4560
   161.0000      4446
   161.1000      4582
   161.2000      4420
   161.3000      4494
   161.4000      4422
   161.5000      4376
   161.6000      4434
   161.7000      4520
   161.8000      4466
   161.9000      4458
   162.0000      4436
