/////////////////////////////////////////////////////////////////////////////////
/// Profile Data Ascii Dump (XRD)                                             ///
/////////////////////////////////////////////////////////////////////////////////

  Group     : Stress3
  Data      : Po_PB_7,6_1
  File Name : Po_PB_7,6_1.RAW

# Data      [ Total No. = 101 ]
  <2Theta>   <   I   >
   152.0000      3974
   152.1000      4010
   152.2000      3906
   152.3000      4042
   152.4000      4100
   152.5000      3962
   152.6000      4090
   152.7000      4170
   152.8000      4180
   152.9000      4178
   153.0000      4292
   153.1000      4348
   153.2000      4314
   153.3000      4422
   153.4000      4536
   153.5000      4688
   153.6000      4680
   153.7000      4760
   153.8000      4838
   153.9000      4888
   154.0000      5062
   154.1000      5248
   154.2000      5422
   154.3000      5614
   154.4000      5594
   154.5000      5798
   154.6000      6148
   154.7000      6296
   154.8000      6372
   154.9000      6738
   155.0000      6872
   155.1000      7036
   155.2000      7308
   155.3000      7400
   155.4000      7682
   155.5000      7904
   155.6000      8152
   155.7000      8262
   155.8000      8524
   155.9000      8586
   156.0000      8668
   156.1000      8694
   156.2000      8536
   156.3000      8588
   156.4000      8592
   156.5000      8600
   156.6000      8530
   156.7000      8338
   156.8000      8418
   156.9000      8004
   157.0000      7876
   157.1000      7858
   157.2000      7584
   157.3000      7390
   157.4000      7320
   157.5000      6974
   157.6000      6866
   157.7000      6832
   157.8000      6446
   157.9000      6296
   158.0000      6228
   158.1000      5942
   158.2000      5866
   158.3000      5848
   158.4000      5608
   158.5000      5522
   158.6000      5396
   158.7000      5234
   158.8000      5118
   158.9000      4996
   159.0000      5018
   159.1000      4764
   159.2000      4752
   159.3000      4792
   159.4000      4642
   159.5000      4692
   159.6000      4538
   159.7000      4618
   159.8000      4484
   159.9000      4498
   160.0000      4500
   160.1000      4320
   160.2000      4390
   160.3000      4188
   160.4000      4288
   160.5000      4294
   160.6000      4262
   160.7000      4218
   160.8000      4218
   160.9000      4178
   161.0000      4144
   161.1000      4148
   161.2000      4194
   161.3000      4166
   161.4000      4086
   161.5000      4096
   161.6000      4072
   161.7000      4248
   161.8000      4106
   161.9000      4144
   162.0000      4138
